PPG,time
-0.148729569029776,1276.20599742333
-0.27976603041297,1276.21599742333
-0.226878001076154,1276.22599742333
-0.231802638776769,1276.23599742333
-0.208433408466926,1276.24599742333
-0.207792650975458,1276.25599742333
-0.198125833467692,1276.26599742333
-0.198962501222564,1276.27599742333
-0.196955385050192,1276.28599742333
-0.198832740644317,1276.29599742333
-0.201419829018913,1276.30599742333
-0.205871718867902,1276.31599742333
-0.211290183892382,1276.32599742333
-0.218260512441547,1276.33599742333
-0.226526403100071,1276.34599742333
-0.235241980107017,1276.35599742333
-0.244917029148435,1276.36599742333
-0.254429163737065,1276.37599742333
-0.263900273445015,1276.38599742333
-0.273752182074365,1276.39599742333
-0.284086655578562,1276.40599742333
-0.295211698261145,1276.41599742333
-0.306181322072943,1276.42599742333
-0.317448636598717,1276.43599742333
-0.328982443595242,1276.44599742333
-0.340682109355205,1276.45599742333
-0.352266395001671,1276.46599742333
-0.36317226751296,1276.47599742333
-0.374155700610276,1276.48599742333
-0.384973905410517,1276.49599742333
-0.395497158243857,1276.50599742333
-0.405368820583474,1276.51599742333
-0.414553934170987,1276.52599742333
-0.423732907962974,1276.53599742333
-0.432706274260635,1276.54599742333
-0.441300984341595,1276.55599742333
-0.450160780337026,1276.56599742333
-0.458925699829369,1276.57599742333
-0.467264312648768,1276.58599742333
-0.475054131354411,1276.59599742333
-0.482727118554281,1276.60599742333
-0.49079471440511,1276.61599742333
-0.499180218657356,1276.62599742333
-0.507737099500808,1276.63599742333
-0.51640558053302,1276.64599742333
-0.524170141596516,1276.65599742333
-0.530950197055152,1276.66599742333
-0.534544723506638,1276.67599742333
-0.529958670879128,1276.68599742333
-0.511776620246483,1276.69599742333
-0.47439848001769,1276.70599742333
-0.417587457076276,1276.71599742333
-0.347846858662578,1276.72599742333
-0.274761987609508,1276.73599742333
-0.206699786438471,1276.74599742333
-0.149201137948961,1276.75599742333
-0.102367284878471,1276.76599742333
-0.0641640876775848,1276.77599742333
-0.0323960207852586,1276.78599742333
-0.00540601042115871,1276.79599742333
0.0179023860448133,1276.80599742333
0.035873678638683,1276.81599742333
0.0476752453388883,1276.82599742333
0.0530684301342973,1276.83599742333
0.0525839886183009,1276.84599742333
0.0470652658053766,1276.85599742333
0.0368329215721925,1276.86599742333
0.0236805395299635,1276.87599742333
0.00822120443409309,1276.88599742333
-0.00891740261935113,1276.89599742333
-0.0269362535736798,1276.90599742333
-0.0450282098018504,1276.91599742333
-0.0633282942787256,1276.92599742333
-0.0821719856311796,1276.93599742333
-0.101287414580277,1276.94599742333
-0.121221473468656,1276.95599742333
-0.142200147467879,1276.96599742333
-0.163734461872544,1276.97599742333
-0.185135792390096,1276.98599742333
-0.20562725318689,1276.99599742333
-0.222934259586349,1277.00599742333
-0.236504923692708,1277.01599742333
-0.244539301500459,1277.02599742333
-0.245729218350736,1277.03599742333
-0.240554891233561,1277.04599742333
-0.229092110887534,1277.05599742333
-0.214140557515578,1277.06599742333
-0.197366899857667,1277.07599742333
-0.180743881339045,1277.08599742333
-0.165843950678198,1277.09599742333
-0.153621003653941,1277.10599742333
-0.144348548368481,1277.11599742333
-0.138296170586929,1277.12599742333
-0.134979513617721,1277.13599742333
-0.13388849365939,1277.14599742333
-0.134640904931804,1277.15599742333
-0.136693492947982,1277.16599742333
-0.140551858141335,1277.17599742333
-0.145492989501596,1277.18599742333
-0.151911305249928,1277.19599742333
-0.159320664922908,1277.20599742333
-0.167414204543685,1277.21599742333
-0.176302805237843,1277.22599742333
-0.18559774636609,1277.23599742333
-0.196089341503477,1277.24599742333
-0.206926681930874,1277.25599742333
-0.218015060145026,1277.26599742333
-0.230097691934834,1277.27599742333
-0.242268431217739,1277.28599742333
-0.254485924516475,1277.29599742333
-0.266679367417141,1277.30599742333
-0.278393566686792,1277.31599742333
-0.290124924447534,1277.32599742333
-0.30138908679627,1277.33599742333
-0.312016415061811,1277.34599742333
-0.322734281354808,1277.35599742333
-0.333207470401472,1277.36599742333
-0.344025759754742,1277.37599742333
-0.355078580870189,1277.38599742333
-0.36542775175344,1277.39599742333
-0.375123403172899,1277.40599742333
-0.383748879953166,1277.41599742333
-0.391663731190859,1277.42599742333
-0.398646255104998,1277.43599742333
-0.404999230335893,1277.44599742333
-0.411179443267235,1277.45599742333
-0.416769615609819,1277.46599742333
-0.422662889510989,1277.47599742333
-0.428511526189908,1277.48599742333
-0.434767333557016,1277.49599742333
-0.441307475720263,1277.50599742333
-0.448590846122297,1277.51599742333
-0.456577603304671,1277.52599742333
-0.464621559292229,1277.53599742333
-0.472659118506648,1277.54599742333
-0.480390658789885,1277.55599742333
-0.486088070211009,1277.56599742333
-0.487882849390361,1277.57599742333
-0.48050353631497,1277.58599742333
-0.457074124949797,1277.59599742333
-0.414347291726935,1277.60599742333
-0.35359053132795,1277.61599742333
-0.282229952707764,1277.62599742333
-0.210045450833689,1277.63599742333
-0.145132995265858,1277.64599742333
-0.0903954880856827,1277.65599742333
-0.0470105563495662,1277.66599742333
-0.0126263250463135,1277.67599742333
0.0155961893456239,1277.68599742333
0.0383502365778906,1277.69599742333
0.0563327953676638,1277.70599742333
0.0693071941803727,1277.71599742333
0.0761178371995749,1277.72599742333
0.0770901688553818,1277.73599742333
0.072701880269186,1277.74599742333
0.063711279354126,1277.75599742333
0.0509751952006198,1277.76599742333
0.0359325849316142,1277.77599742333
0.0194766335794177,1277.78599742333
0.00201207958653391,1277.79599742333
-0.0156713584354865,1277.80599742333
-0.0343711662012364,1277.81599742333
-0.053232771106148,1277.82599742333
-0.0727526851719224,1277.83599742333
-0.0931175115348879,1277.84599742333
-0.113893147401728,1277.85599742333
-0.135157218827036,1277.86599742333
-0.156854208660838,1277.87599742333
-0.177569198723025,1277.88599742333
-0.196413931712724,1277.89599742333
-0.210972421550189,1277.90599742333
-0.219939927237424,1277.91599742333
-0.221467839219004,1277.92599742333
-0.215424114982168,1277.93599742333
-0.202562163652137,1277.94599742333
-0.184894188765336,1277.95599742333
-0.1638009227573,1277.96599742333
-0.142590890159166,1277.97599742333
-0.123167848706877,1277.98599742333
-0.106888860262924,1277.99599742333
-0.094489380272155,1278.00599742333
-0.0856964008900956,1278.01599742333
-0.0807106670040447,1278.02599742333
-0.0788539086415969,1278.03599742333
-0.0788413823326965,1278.04599742333
-0.0808677302563516,1278.05599742333
-0.0837712394335526,1278.06599742333
-0.0877804099647785,1278.07599742333
-0.0925140697890899,1278.08599742333
-0.0983794256015539,1278.09599742333
-0.104831669805919,1278.10599742333
-0.112581477855671,1278.11599742333
-0.120780752275784,1278.12599742333
-0.129874089862983,1278.13599742333
-0.139297683067625,1278.14599742333
-0.149611415421607,1278.15599742333
-0.159931061216844,1278.16599742333
-0.171066387241329,1278.17599742333
-0.18256049177944,1278.18599742333
-0.194046821470566,1278.19599742333
-0.205489218351406,1278.20599742333
-0.216896654334412,1278.21599742333
-0.227419232923256,1278.22599742333
-0.237274908349786,1278.23599742333
-0.246481063598675,1278.24599742333
-0.255212081397112,1278.25599742333
-0.263354308104472,1278.26599742333
-0.270976295727528,1278.27599742333
-0.278234455320336,1278.28599742333
-0.284910333503449,1278.29599742333
-0.291890542821901,1278.30599742333
-0.298155568240949,1278.31599742333
-0.304433139219623,1278.32599742333
-0.31009964880099,1278.33599742333
-0.315272816241508,1278.34599742333
-0.320994560733642,1278.35599742333
-0.326668374160926,1278.36599742333
-0.333398780835759,1278.37599742333
-0.340749348852368,1278.38599742333
-0.348294656522772,1278.39599742333
-0.355151590647435,1278.40599742333
-0.360735834877706,1278.41599742333
-0.362612966842766,1278.42599742333
-0.356763336709163,1278.43599742333
-0.338034801141719,1278.44599742333
-0.301601540793217,1278.45599742333
-0.24902944882911,1278.46599742333
-0.186363416820866,1278.47599742333
-0.121345551197711,1278.48599742333
-0.0603745244500557,1278.49599742333
-0.00695301804408122,1278.50599742333
0.0392080662523898,1278.51599742333
0.0799577596905603,1278.52599742333
0.11599427402333,1278.53599742333
0.147892194124858,1278.54599742333
0.174252368903863,1278.55599742333
0.192988703330983,1278.56599742333
0.203464502546334,1278.57599742333
0.206435590318598,1278.58599742333
0.202172720968865,1278.59599742333
0.192768159686583,1278.60599742333
0.179679794879171,1278.61599742333
0.163991015664035,1278.62599742333
0.147306189526171,1278.63599742333
0.129834002302728,1278.64599742333
0.112318982361243,1278.65599742333
0.0946109987347528,1278.66599742333
0.0763723387630684,1278.67599742333
0.0576938499487478,1278.68599742333
0.0387427383664121,1278.69599742333
0.0192540824768038,1278.70599742333
-0.000825045402409848,1278.71599742333
-0.020792229179696,1278.72599742333
-0.0403331565590396,1278.73599742333
-0.0571332917314228,1278.74599742333
-0.0696174877632971,1278.75599742333
-0.0765210448342787,1278.76599742333
-0.0765852757872748,1278.77599742333
-0.0704336075655201,1278.78599742333
-0.0580079048998896,1278.79599742333
-0.0413636737241145,1278.80599742333
-0.0225166931663862,1278.81599742333
-0.0043751526793034,1278.82599742333
0.0111987291175113,1278.83599742333
0.0240069087321909,1278.84599742333
0.0327085471144821,1278.85599742333
0.0381669610458759,1278.86599742333
0.0413152421426466,1278.87599742333
0.0419587467686418,1278.88599742333
0.0412342942274346,1278.89599742333
0.0389310762017234,1278.90599742333
0.0357998764282709,1278.91599742333
0.0319713587431967,1278.92599742333
0.0269297800899416,1278.93599742333
0.0206652235067208,1278.94599742333
0.0133420377947692,1278.95599742333
0.00536225004436516,1278.96599742333
-0.00300788962736976,1278.97599742333
-0.0113933623573093,1278.98599742333
-0.0195055053162659,1278.99599742333
-0.0282635240331257,1279.00599742333
-0.0372720792585046,1279.01599742333
-0.0469162129504635,1279.02599742333
-0.0561340885086603,1279.03599742333
-0.0659196135547977,1279.04599742333
-0.0759566452150497,1279.05599742333
-0.0859356826694437,1279.06599742333
-0.0963092822673253,1279.07599742333
-0.106090931268174,1279.08599742333
-0.116144745566826,1279.09599742333
-0.125545202634434,1279.10599742333
-0.134178770314948,1279.11599742333
-0.142600202218555,1279.12599742333
-0.150533124804833,1279.13599742333
-0.157222757360778,1279.14599742333
-0.16364677567579,1279.15599742333
-0.16970883941174,1279.16599742333
-0.175769655012688,1279.17599742333
-0.181752337937464,1279.18599742333
-0.187389632158507,1279.19599742333
-0.193839154372364,1279.20599742333
-0.200417924371957,1279.21599742333
-0.20708415310823,1279.22599742333
-0.21449814164781,1279.23599742333
-0.2217775353073,1279.24599742333
-0.22844655512781,1279.25599742333
-0.234168409381834,1279.26599742333
-0.23698492063875,1279.27599742333
-0.232911637280328,1279.28599742333
-0.217153470720746,1279.29599742333
-0.185911856572591,1279.30599742333
-0.138995903959268,1279.31599742333
-0.0813569495396007,1279.32599742333
-0.0200599508724367,1279.33599742333
0.0394748153013217,1279.34599742333
0.0963829130525382,1279.35599742333
0.15148615550848,1279.36599742333
0.207152174188595,1279.37599742333
0.261868199677251,1279.38599742333
0.314871582485166,1279.39599742333
0.361319327983363,1279.40599742333
0.399096165682527,1279.41599742333
0.425585216437285,1279.42599742333
0.439581761173842,1279.43599742333
0.443157346432707,1279.44599742333
0.438244926507093,1279.45599742333
0.42736860143537,1279.46599742333
0.413205371814897,1279.47599742333
0.397703505315227,1279.48599742333
0.381466834940842,1279.49599742333
0.365245607097972,1279.50599742333
0.34876473917853,1279.51599742333
0.332409810863005,1279.52599742333
0.316020524217183,1279.53599742333
0.299038002209062,1279.54599742333
0.282370581026409,1279.55599742333
0.265481177007817,1279.56599742333
0.248989346035308,1279.57599742333
0.23211945118669,1279.58599742333
0.216515355910357,1279.59599742333
0.202844914734472,1279.60599742333
0.191917042282499,1279.61599742333
0.185981625096868,1279.62599742333
0.184996861925209,1279.63599742333
0.188762938581242,1279.64599742333
0.197190743428218,1279.65599742333
0.207997847988669,1279.66599742333
0.220683154786062,1279.67599742333
0.23323545431139,1279.68599742333
0.244554361347005,1279.69599742333
0.25387743137592,1279.70599742333
0.26070288530975,1279.71599742333
0.264552327987805,1279.72599742333
0.266072875772964,1279.73599742333
0.265979367866829,1279.74599742333
0.263460932781315,1279.75599742333
0.259986306666221,1279.76599742333
0.255393711125951,1279.77599742333
0.250298005153492,1279.78599742333
0.244252880818811,1279.79599742333
0.23711538350472,1279.80599742333
0.228907851775749,1279.81599742333
0.220145886857763,1279.82599742333
0.210918720971862,1279.83599742333
0.201079970610626,1279.84599742333
0.190943949456378,1279.85599742333
0.180976435641669,1279.86599742333
0.170458016241874,1279.87599742333
0.16005603466285,1279.88599742333
0.149733091764651,1279.89599742333
0.139464258106219,1279.90599742333
0.129108301764107,1279.91599742333
0.118682815335202,1279.92599742333
0.108507397336066,1279.93599742333
0.0987829475939504,1279.94599742333
0.0891906498564697,1279.95599742333
0.0795883329194007,1279.96599742333
0.0699961256567531,1279.97599742333
0.0610717492749178,1279.98599742333
0.0524239263510621,1279.99599742333
0.0447332451052925,1280.00599742333
0.0377032816853668,1280.01599742333
0.0309926247872464,1280.02599742333
0.0248494269591613,1280.03599742333
0.0194571398417159,1280.04599742333
0.0140513685076492,1280.05599742333
0.00869003834739846,1280.06599742333
0.00311265875537602,1280.07599742333
-0.00263821235892953,1280.08599742333
-0.00860619302157211,1280.09599742333
-0.0149871664715348,1280.10599742333
-0.0213385342399754,1280.11599742333
-0.0288635692096577,1280.12599742333
-0.0362245540447342,1280.13599742333
-0.0439333732510185,1280.14599742333
-0.0509266148923747,1280.15599742333
-0.0561377718897145,1280.16599742333
-0.0572194652266481,1280.17599742333
-0.0501517879260645,1280.18599742333
-0.0301530310137645,1280.19599742333
0.0045978382902871,1280.20599742333
0.0520575484945213,1280.21599742333
0.106996870049924,1280.22599742333
0.163896593284687,1280.23599742333
0.219518455540795,1280.24599742333
0.27532116531533,1280.25599742333
0.334036975584169,1280.26599742333
0.396603652513258,1280.27599742333
0.461736837818798,1280.28599742333
0.524966296915849,1280.29599742333
0.580489657211894,1280.30599742333
0.622982723650903,1280.31599742333
0.64978507520278,1280.32599742333
0.660873535998042,1280.33599742333
0.6593795163515,1280.34599742333
0.648749961328773,1280.35599742333
0.632845338195709,1280.36599742333
0.614198380041712,1280.37599742333
0.595200781302538,1280.38599742333
0.576824044012958,1280.39599742333
0.559461736092097,1280.40599742333
0.542893548041084,1280.41599742333
0.527133792086067,1280.42599742333
0.51134583240981,1280.43599742333
0.494981231044023,1280.44599742333
0.477685823925778,1280.45599742333
0.459909024037858,1280.46599742333
0.442077043015361,1280.47599742333
0.42500159031575,1280.48599742333
0.409856518528341,1280.49599742333
0.39698512739521,1280.50599742333
0.387730996550175,1280.51599742333
0.382490435861757,1280.52599742333
0.381994376655606,1280.53599742333
0.385444212783794,1280.54599742333
0.39298933006305,1280.55599742333
0.402119927399342,1280.56599742333
0.41216576956929,1280.57599742333
0.421578866333893,1280.58599742333
0.429382554581985,1280.59599742333
0.435387756463202,1280.60599742333
0.438589439594769,1280.61599742333
0.440078824733642,1280.62599742333
0.439401238097819,1280.63599742333
0.437167867635784,1280.64599742333
0.433982301434574,1280.65599742333
0.429184545985092,1280.66599742333
0.423720024589125,1280.67599742333
0.416577500495362,1280.68599742333
0.40917160106446,1280.69599742333
0.400747987453485,1280.70599742333
0.391795683805857,1280.71599742333
0.382098553024772,1280.72599742333
0.371951431137014,1280.73599742333
0.361332236317414,1280.74599742333
0.350113043375045,1280.75599742333
0.338809360792656,1280.76599742333
0.327214359960798,1280.77599742333
0.316164154708202,1280.78599742333
0.305340462669529,1280.79599742333
0.295075069277264,1280.80599742333
0.284931072570075,1280.81599742333
0.274543883769203,1280.82599742333
0.264396669603052,1280.83599742333
0.254117521098171,1280.84599742333
0.243720837628613,1280.85599742333
0.23343193948059,1280.86599742333
0.223366039180863,1280.87599742333
0.213409781079958,1280.88599742333
0.203611733301919,1280.89599742333
0.193945534433939,1280.90599742333
0.184619756632055,1280.91599742333
0.175830014013089,1280.92599742333
0.167521415663716,1280.93599742333
0.160003424700508,1280.94599742333
0.152823718293348,1280.95599742333
0.146025821880144,1280.96599742333
0.140141450721383,1280.97599742333
0.13433075197306,1280.98599742333
0.128595235855406,1280.99599742333
0.123610952907709,1281.00599742333
0.119123797917425,1281.01599742333
0.11461904352515,1281.02599742333
0.109869135538032,1281.03599742333
0.104644278021148,1281.04599742333
0.0989630226398022,1281.05599742333
0.0926284676881782,1281.06599742333
0.0853243677941422,1281.07599742333
0.0776186598552725,1281.08599742333
0.0693738364418607,1281.09599742333
0.0608960892788443,1281.10599742333
0.0535705917631948,1281.11599742333
0.0475792388814588,1281.12599742333
0.0448193173733175,1281.13599742333
0.0487049929003638,1281.14599742333
0.063830232428384,1281.15599742333
0.0927597810883178,1281.16599742333
0.135476464531802,1281.17599742333
0.187155414886203,1281.18599742333
0.242319122897713,1281.19599742333
0.296662829473273,1281.20599742333
0.349754301894257,1281.21599742333
0.403434768510012,1281.22599742333
0.460267884850649,1281.23599742333
0.519292468922733,1281.24599742333
0.577026150827935,1281.25599742333
0.628133865756311,1281.26599742333
0.666475461396663,1281.27599742333
0.689546132421478,1281.28599742333
0.697619070444374,1281.29599742333
0.693206561256233,1281.30599742333
0.679451522493704,1281.31599742333
0.660965902092975,1281.32599742333
0.639603885163842,1281.33599742333
0.618511090717813,1281.34599742333
0.598267973820951,1281.35599742333
0.578710064070795,1281.36599742333
0.560272475343007,1281.37599742333
0.542573479194553,1281.38599742333
0.525691851805698,1281.39599742333
0.508520973252664,1281.40599742333
0.491433667207695,1281.41599742333
0.473904204291392,1281.42599742333
0.45658696531831,1281.43599742333
0.440100124039107,1281.44599742333
0.425534439556641,1281.45599742333
0.413166621052737,1281.46599742333
0.403818928492494,1281.47599742333
0.398272590704051,1281.48599742333
0.397372400282627,1281.49599742333
0.400818231301604,1281.50599742333
0.408462988345004,1281.51599742333
0.419232283711269,1281.52599742333
0.431129491194326,1281.53599742333
0.44311051879217,1281.54599742333
0.45282387950573,1281.55599742333
0.459798438035435,1281.56599742333
0.463668108198234,1281.57599742333
0.464408152219901,1281.58599742333
0.462728238987261,1281.59599742333
0.459571236471816,1281.60599742333
0.455234925164607,1281.61599742333
0.449585510533969,1281.62599742333
0.443218136934828,1281.63599742333
0.435979185291117,1281.64599742333
0.427405379340629,1281.65599742333
0.418415204524686,1281.66599742333
0.408623836214138,1281.67599742333
0.398764307296981,1281.68599742333
0.387512678203958,1281.69599742333
0.375909640191282,1281.70599742333
0.364599672549877,1281.71599742333
0.353397171450417,1281.72599742333
0.341798184505758,1281.73599742333
0.330854887178704,1281.74599742333
0.319932596259111,1281.75599742333
0.308395623367778,1281.76599742333
0.297169898615797,1281.77599742333
0.2850074265539,1281.78599742333
0.273409240277922,1281.79599742333
0.26259075767604,1281.80599742333
0.252163991236721,1281.81599742333
0.242285517322331,1281.82599742333
0.232636358159321,1281.83599742333
0.2235715197394,1281.84599742333
0.215055059114947,1281.85599742333
0.207410534498011,1281.86599742333
0.200156536201417,1281.87599742333
0.193667690089329,1281.88599742333
0.187624746189168,1281.89599742333
0.181557708586958,1281.90599742333
0.17609371884599,1281.91599742333
0.170934502585169,1281.92599742333
0.165348479730593,1281.93599742333
0.159660151022126,1281.94599742333
0.152779738670519,1281.95599742333
0.145704745767294,1281.96599742333
0.138283633629264,1281.97599742333
0.131027538801909,1281.98599742333
0.123486435611609,1281.99599742333
0.115608953557765,1282.00599742333
0.107889473456957,1282.01599742333
0.0998641118913194,1282.02599742333
0.0926831653214273,1282.03599742333
0.0872076323396044,1282.04599742333
0.0869830420156775,1282.05599742333
0.0959034895216679,1282.06599742333
0.117115353844698,1282.07599742333
0.152336558577461,1282.08599742333
0.197785305660599,1282.09599742333
0.248919781724975,1282.10599742333
0.300103365810008,1282.11599742333
0.350956793829409,1282.12599742333
0.403180848593465,1282.13599742333
0.458709014285647,1282.14599742333
0.515895401835691,1282.15599742333
0.570326272074274,1282.16599742333
0.61601097025943,1282.17599742333
0.648564538445588,1282.18599742333
0.665229263993097,1282.19599742333
0.667395851634198,1282.20599742333
0.65811356756823,1282.21599742333
0.641193258087835,1282.22599742333
0.620943538701719,1282.23599742333
0.600022409323797,1282.24599742333
0.579925780695942,1282.25599742333
0.56057719217664,1282.26599742333
0.542401014015416,1282.27599742333
0.524522720544424,1282.28599742333
0.506680533784549,1282.29599742333
0.488953324926049,1282.30599742333
0.470911421428499,1282.31599742333
0.453115306241629,1282.32599742333
0.435161037449329,1282.33599742333
0.417048585209331,1282.34599742333
0.39980373388843,1282.35599742333
0.383775173636197,1282.36599742333
0.370706023006341,1282.37599742333
0.361649907581738,1282.38599742333
0.356955678616908,1282.39599742333
0.357348927622327,1282.40599742333
0.362151062242096,1282.41599742333
0.370829590201369,1282.42599742333
0.381620885299245,1282.43599742333
0.393814186435037,1282.44599742333
0.404986529189994,1282.45599742333
0.414258175800716,1282.46599742333
0.420521517243783,1282.47599742333
0.423805382599884,1282.48599742333
0.42445500842685,1282.49599742333
0.423018085201312,1282.50599742333
0.420201598204136,1282.51599742333
0.416256930356908,1282.52599742333
0.412585793898746,1282.53599742333
0.408578339016095,1282.54599742333
0.404314822881702,1282.55599742333
0.399043185012116,1282.56599742333
0.392730715571533,1282.57599742333
0.384661428275901,1282.58599742333
0.375031847452804,1282.59599742333
0.364668562257583,1282.60599742333
0.353682193668559,1282.61599742333
0.342619898890867,1282.62599742333
0.331801957584957,1282.63599742333
0.32102277981156,1282.64599742333
0.310665872266947,1282.65599742333
0.300669626101138,1282.66599742333
0.290875577963788,1282.67599742333
0.281221881109327,1282.68599742333
0.272344749462688,1282.69599742333
0.263594992591096,1282.70599742333
0.254943558204105,1282.71599742333
0.246230204330937,1282.72599742333
0.238238917765184,1282.73599742333
0.23171898617195,1282.74599742333
0.226045989931345,1282.75599742333
0.219925479512068,1282.76599742333
0.209911082906336,1282.77599742333
0.193758867174688,1282.78599742333
0.171655915674611,1282.79599742333
0.144714323178295,1282.80599742333
0.115775465077546,1282.81599742333
0.0864435689124801,1282.82599742333
0.0577659731715863,1282.83599742333
0.0305243992741254,1282.84599742333
0.00567873373255141,1282.85599742333
-0.0172829608426866,1282.86599742333
-0.0393385692933193,1282.87599742333
-0.0608629724962526,1282.88599742333
-0.0818670361400517,1282.89599742333
-0.101999298160497,1282.90599742333
-0.120552949030517,1282.91599742333
-0.137198932600257,1282.92599742333
-0.151846054936718,1282.93599742333
-0.163769164401354,1282.94599742333
-0.172473196300605,1282.95599742333
-0.17399310364731,1282.96599742333
-0.16316857223917,1282.97599742333
-0.132353736416609,1282.98599742333
-0.0765146271533139,1282.99599742333
-0.000503915718251202,1283.00599742333
0.0846497791633587,1283.01599742333
0.166502660263383,1283.02599742333
0.236067683228255,1283.03599742333
0.291321159338308,1283.04599742333
0.335909628011601,1283.05599742333
0.375292216677207,1283.06599742333
0.413663584653682,1283.07599742333
0.451322763608565,1283.08599742333
0.485676283693889,1283.09599742333
0.51217641941304,1283.10599742333
0.527535110957748,1283.11599742333
0.531145828471469,1283.12599742333
0.524400066104382,1283.13599742333
0.510269737910523,1283.14599742333
0.491825524827655,1283.15599742333
0.472064445171867,1283.16599742333
0.452509230728391,1283.17599742333
0.434319929891983,1283.18599742333
0.417465785619341,1283.19599742333
0.401152875701194,1283.20599742333
0.385841290989412,1283.21599742333
0.370334742602943,1283.22599742333
0.355028160700994,1283.23599742333
0.338824628446882,1283.24599742333
0.322394580775309,1283.25599742333
0.305817869166512,1283.26599742333
0.290065940762388,1283.27599742333
0.275400654989961,1283.28599742333
0.26273005242274,1283.29599742333
0.2539262460101,1283.30599742333
0.248549090823675,1283.31599742333
0.247744073089089,1283.32599742333
0.251527276815902,1283.33599742333
0.259538176378976,1283.34599742333
0.269759705231564,1283.35599742333
0.28141005574912,1283.36599742333
0.292619904932528,1283.37599742333
0.302232064819273,1283.38599742333
0.309840155044731,1283.39599742333
0.314784044106284,1283.40599742333
0.317303218205894,1283.41599742333
0.317056515656962,1283.42599742333
0.314098573707777,1283.43599742333
0.309637892611534,1283.44599742333
0.303872076561766,1283.45599742333
0.29771959617258,1283.46599742333
0.291336350852147,1283.47599742333
0.28492786551829,1283.48599742333
0.278076381582898,1283.49599742333
0.270658830106662,1283.50599742333
0.26283868541562,1283.51599742333
0.254003269236515,1283.52599742333
0.244914516766224,1283.53599742333
0.234797237139561,1283.54599742333
0.224867655998761,1283.55599742333
0.215061672128662,1283.56599742333
0.205091887737659,1283.57599742333
0.194838813766142,1283.58599742333
0.184461313195003,1283.59599742333
0.17339280937518,1283.60599742333
0.162871697744747,1283.61599742333
0.152557354490765,1283.62599742333
0.142671331756034,1283.63599742333
0.133419979659576,1283.64599742333
0.124622702285936,1283.65599742333
0.115939840426128,1283.66599742333
0.107844555190443,1283.67599742333
0.100044775675923,1283.68599742333
0.0918380425522212,1283.69599742333
0.0846836993317646,1283.70599742333
0.0775789067099136,1283.71599742333
0.0705158014360834,1283.72599742333
0.0628318046099968,1283.73599742333
0.05531593937037,1283.74599742333
0.0478947606053267,1283.75599742333
0.040770895212117,1283.76599742333
0.0346424603018593,1283.77599742333
0.0287801165145484,1283.78599742333
0.0238896035806413,1283.79599742333
0.0190524920776366,1283.80599742333
0.0138953542117358,1283.81599742333
0.00842107381561262,1283.82599742333
0.00271106056592213,1283.83599742333
-0.00325959656485014,1283.84599742333
-0.00929405486170218,1283.85599742333
-0.0159108716156333,1283.86599742333
-0.0228027793370011,1283.87599742333
-0.0298044489744402,1283.88599742333
-0.0368235875090668,1283.89599742333
-0.0435452075978069,1283.90599742333
-0.0493452319052744,1283.91599742333
-0.0519291556296524,1283.92599742333
-0.0481458799981847,1283.93599742333
-0.0328598765749837,1283.94599742333
-0.00335829893733861,1283.95599742333
0.0394709385768209,1283.96599742333
0.0902267225593469,1283.97599742333
0.143888138739389,1283.98599742333
0.198312080176303,1283.99599742333
0.253227252971943,1284.00599742333
0.312046315298608,1284.01599742333
0.374250114858758,1284.02599742333
0.435459799158738,1284.03599742333
0.489541996192167,1284.04599742333
0.530002771128434,1284.05599742333
0.554160116038535,1284.06599742333
0.561432839663917,1284.07599742333
0.555534719894192,1284.08599742333
0.540270024943401,1284.09599742333
0.519209789974317,1284.10599742333
0.496150172052627,1284.11599742333
0.473416962479099,1284.12599742333
0.451744546761263,1284.13599742333
0.431498711476068,1284.14599742333
0.412500901776915,1284.15599742333
0.394795924075097,1284.16599742333
0.377338778807893,1284.17599742333
0.360847026309059,1284.18599742333
0.344925863206133,1284.19599742333
0.329473807946587,1284.20599742333
0.313446253541119,1284.21599742333
0.297518732402017,1284.22599742333
0.281330738443409,1284.23599742333
0.265532760665844,1284.24599742333
0.252313261647961,1284.25599742333
0.241196061882675,1284.26599742333
0.234113422058974,1284.27599742333
0.23137155320766,1284.28599742333
0.233317222680123,1284.29599742333
0.239217314789484,1284.30599742333
0.248249620294334,1284.31599742333
0.259124280683925,1284.32599742333
0.269793656986912,1284.33599742333
0.280211650132344,1284.34599742333
0.288535865912551,1284.35599742333
0.294355571255545,1284.36599742333
0.29821277730988,1284.37599742333
0.299519827940161,1284.38599742333
0.298296611845478,1284.39599742333
0.295051887456895,1284.40599742333
0.290405789462475,1284.41599742333
0.284597439680764,1284.42599742333
0.27783115703863,1284.43599742333
0.270509647304649,1284.44599742333
0.262639625591802,1284.45599742333
0.254477792283716,1284.46599742333
0.245346948880892,1284.47599742333
0.235572640929162,1284.48599742333
0.225205788727622,1284.49599742333
0.215333035166586,1284.50599742333
0.205233402429722,1284.51599742333
0.194869045024149,1284.52599742333
0.184500343979865,1284.53599742333
0.174282012974109,1284.54599742333
0.164137233036013,1284.55599742333
0.154350144618106,1284.56599742333
0.144807496277488,1284.57599742333
0.135117492198387,1284.58599742333
0.125161151721112,1284.59599742333
0.11485944693282,1284.60599742333
0.104779506904324,1284.61599742333
0.0949555864805525,1284.62599742333
0.0857572339830207,1284.63599742333
0.0772234929409395,1284.64599742333
0.0689533905344319,1284.65599742333
0.0608484939716224,1284.66599742333
0.0526795319955316,1284.67599742333
0.0447670334595968,1284.68599742333
0.0374139285904557,1284.69599742333
0.0299841390103328,1284.70599742333
0.0231719372114512,1284.71599742333
0.0164938240141777,1284.72599742333
0.00981731145105232,1284.73599742333
0.00399373083026969,1284.74599742333
-0.0015501456904374,1284.75599742333
-0.00662330049374701,1284.76599742333
-0.0116189227809921,1284.77599742333
-0.016987719845673,1284.78599742333
-0.02255082260934,1284.79599742333
-0.0287217689095304,1284.80599742333
-0.0357085025150677,1284.81599742333
-0.0435611007661423,1284.82599742333
-0.0521565651854288,1284.83599742333
-0.0613649181663336,1284.84599742333
-0.0697123375653955,1284.85599742333
-0.0761072626291303,1284.86599742333
-0.0795182348204183,1284.87599742333
-0.0754571594621163,1284.88599742333
-0.060390663559932,1284.89599742333
-0.0310740820722272,1284.90599742333
0.0107623848840433,1284.91599742333
0.0615009949108115,1284.92599742333
0.114939519439869,1284.93599742333
0.166435163256724,1284.94599742333
0.216216708324271,1284.95599742333
0.265863263726252,1284.96599742333
0.316483981938113,1284.97599742333
0.366926640162129,1284.98599742333
0.412885486922087,1284.99599742333
0.449345927692001,1285.00599742333
0.473615078355413,1285.01599742333
0.483648647741054,1285.02599742333
0.481612928500947,1285.03599742333
0.469677151198089,1285.04599742333
0.451474387279529,1285.05599742333
0.430685726591937,1285.06599742333
0.409066507263663,1285.07599742333
0.388884416417664,1285.08599742333
0.369574934081305,1285.09599742333
0.351797805819635,1285.10599742333
0.334322058189287,1285.11599742333
0.31742419176724,1285.12599742333
0.30030517514286,1285.13599742333
0.283192781058195,1285.14599742333
0.265820442702238,1285.15599742333
0.248018954286895,1285.16599742333
0.229563437284412,1285.17599742333
0.211488256431147,1285.18599742333
0.194999112021396,1285.19599742333
0.181165691555095,1285.20599742333
0.171097630314957,1285.21599742333
0.165603871597978,1285.22599742333
0.165591187756874,1285.23599742333
0.170969632578264,1285.24599742333
0.180348002382708,1285.25599742333
0.193100692030953,1285.26599742333
0.206603990650976,1285.27599742333
0.219795843457964,1285.28599742333
0.231393642097138,1285.29599742333
0.240016278621749,1285.30599742333
0.245512687364613,1285.31599742333
0.247812736876363,1285.32599742333
0.247883691388201,1285.33599742333
0.24569163091259,1285.34599742333
0.241943010279269,1285.35599742333
0.236609708311263,1285.36599742333
0.230462885764602,1285.37599742333
0.223922130981433,1285.38599742333
0.216818903973784,1285.39599742333
0.209223110103229,1285.40599742333
0.201815666639067,1285.41599742333
0.194046743018626,1285.42599742333
0.185645992739224,1285.43599742333
0.176603781166779,1285.44599742333
0.166606352377848,1285.45599742333
0.15594280003262,1285.46599742333
0.143781719402612,1285.47599742333
0.130324679490428,1285.48599742333
0.115680082267592,1285.49599742333
0.100862041019489,1285.50599742333
0.0857628233229132,1285.51599742333
0.0711522485000056,1285.52599742333
0.0579767113959476,1285.53599742333
0.0459513899526589,1285.54599742333
0.0347480757106011,1285.55599742333
0.0237922225757359,1285.56599742333
0.0130542309278937,1285.57599742333
0.00275535724312337,1285.58599742333
-0.00700012328725039,1285.59599742333
-0.0160344884932673,1285.60599742333
-0.0245950460487164,1285.61599742333
-0.0327682821526638,1285.62599742333
-0.0406901117715602,1285.63599742333
-0.0485779640922629,1285.64599742333
-0.056328950512394,1285.65599742333
-0.0638579958671573,1285.66599742333
-0.0712821022758253,1285.67599742333
-0.0787267272697105,1285.68599742333
-0.0864126667097336,1285.69599742333
-0.0941941743994687,1285.70599742333
-0.102253821119036,1285.71599742333
-0.11031485584473,1285.72599742333
-0.118290858941931,1285.73599742333
-0.123765339171355,1285.74599742333
-0.125436949880939,1285.75599742333
-0.119468810553822,1285.76599742333
-0.101047870498699,1285.77599742333
-0.0680948877027075,1285.78599742333
-0.0219746989401305,1285.79599742333
0.0307320759273299,1285.80599742333
0.0841408932409919,1285.81599742333
0.132858710661888,1285.82599742333
0.176459511751193,1285.83599742333
0.217229456789841,1285.84599742333
0.257836648485928,1285.85599742333
0.298365470450234,1285.86599742333
0.337068442514768,1285.87599742333
0.368762616623942,1285.88599742333
0.388794495303018,1285.89599742333
0.39644427287128,1285.90599742333
0.392378710122701,1285.91599742333
0.379771812047687,1285.92599742333
0.36148660042994,1285.93599742333
0.339369837091678,1285.94599742333
0.31535567200416,1285.95599742333
0.289813779788954,1285.96599742333
0.263507527174591,1285.97599742333
0.237105251183433,1285.98599742333
0.211191931879145,1285.99599742333
0.18736488424323,1286.00599742333
0.165765309832789,1286.01599742333
0.1475892581946,1286.02599742333
0.132890762962716,1286.03599742333
0.122583056073003,1286.04599742333
0.115926750275163,1286.05599742333
0.11277822667255,1286.06599742333
0.11190923822535,1286.07599742333
0.113467963228528,1286.08599742333
0.116648357028492,1286.09599742333
0.121051358467174,1286.10599742333
0.125936860535024,1286.11599742333
0.132185887868477,1286.12599742333
0.138740480812963,1286.13599742333
0.14729180411058,1286.14599742333
0.157051995682242,1286.15599742333
0.169815391431828,1286.16599742333
0.185781195401832,1286.17599742333
0.204755134438133,1286.18599742333
0.226195048739173,1286.19599742333
0.248057442332358,1286.20599742333
0.269900468854721,1286.21599742333
0.290547031268652,1286.22599742333
0.309394114309677,1286.23599742333
0.324652035565846,1286.24599742333
0.335634615373288,1286.25599742333
0.342351080900208,1286.26599742333
0.344734732510067,1286.27599742333
0.343977460808748,1286.28599742333
0.339883209460106,1286.29599742333
0.333243048215493,1286.30599742333
0.324937748929413,1286.31599742333
0.314447719152519,1286.32599742333
0.302061910684311,1286.33599742333
0.285814164674733,1286.34599742333
0.264101570072814,1286.35599742333
0.234364686020819,1286.36599742333
0.195206906919248,1286.37599742333
0.147862081192083,1286.38599742333
0.0964471551615343,1286.39599742333
0.0480661228351677,1286.40599742333
0.00373434990906143,1286.41599742333
-0.0377408420864931,1286.42599742333
-0.079786611347027,1286.43599742333
-0.125287098606263,1286.44599742333
-0.175381629862051,1286.45599742333
-0.228509247173149,1286.46599742333
-0.28187980853651,1286.47599742333
-0.330882508941147,1286.48599742333
-0.371484472223954,1286.49599742333
-0.401953399420701,1286.50599742333
-0.421482240535218,1286.51599742333
-0.43236060322476,1286.52599742333
-0.436863113925865,1286.53599742333
-0.436404634334735,1286.54599742333
-0.432341923664561,1286.55599742333
-0.425274197781561,1286.56599742333
-0.415533162501149,1286.57599742333
-0.403468947921322,1286.58599742333
-0.389137362586986,1286.59599742333
-0.371250715805795,1286.60599742333
-0.345624721023218,1286.61599742333
-0.30800655263572,1286.62599742333
-0.255673672550151,1286.63599742333
-0.189699348962094,1286.64599742333
-0.117252267683522,1286.65599742333
-0.0449851306726915,1286.66599742333
0.0207057627582344,1286.67599742333
0.0804517674122564,1286.68599742333
0.137865235329888,1286.69599742333
0.197612138955989,1286.70599742333
0.260406180668563,1286.71599742333
0.322302146573558,1286.72599742333
0.378407702471856,1286.73599742333
0.42137624772362,1286.74599742333
0.447575427323642,1286.75599742333
0.457541580417061,1286.76599742333
0.454208385857,1286.77599742333
0.441686409750889,1286.78599742333
0.423506900428553,1286.79599742333
0.404090362513302,1286.80599742333
0.384250663599987,1286.81599742333
0.36511975583223,1286.82599742333
0.347331382387035,1286.83599742333
0.330422912823087,1286.84599742333
0.314507212155656,1286.85599742333
0.299341887880361,1286.86599742333
0.283980034409033,1286.87599742333
0.268226057497715,1286.88599742333
0.252590688355255,1286.89599742333
0.236447948813606,1286.90599742333
0.220953851606434,1286.91599742333
0.207506988172615,1286.92599742333
0.195697742267415,1286.93599742333
0.186458761121275,1286.94599742333
0.180262816501628,1286.95599742333
0.177900504998572,1286.96599742333
0.179027695595581,1286.97599742333
0.183850288650253,1286.98599742333
0.1909402498797,1286.99599742333
0.199614483526414,1287.00599742333
0.208049609649145,1287.01599742333
0.215902017625977,1287.02599742333
0.22161698147854,1287.03599742333
0.224822651043022,1287.04599742333
0.225884234570441,1287.05599742333
0.224585476047703,1287.06599742333
0.221555557684639,1287.07599742333
0.216848391566081,1287.08599742333
0.211114584496181,1287.09599742333
0.204218177678011,1287.10599742333
0.197202791281389,1287.11599742333
0.189992007978724,1287.12599742333
0.182497456932132,1287.13599742333
0.174217410749423,1287.14599742333
0.165475330566178,1287.15599742333
0.156582561016868,1287.16599742333
0.147605058905636,1287.17599742333
0.139361004643992,1287.18599742333
0.131643977455718,1287.19599742333
0.123289768227274,1287.20599742333
0.114565549908277,1287.21599742333
0.105501745588875,1287.22599742333
0.0955737859535205,1287.23599742333
0.0852076738262203,1287.24599742333
0.074379664263017,1287.25599742333
0.0633473305048977,1287.26599742333
0.0527561924739866,1287.27599742333
0.0432097496414008,1287.28599742333
0.0343130023986353,1287.29599742333
0.0255607043307809,1287.30599742333
0.0174740395295482,1287.31599742333
0.0093386160208349,1287.32599742333
0.00119161390035234,1287.33599742333
-0.00672334517154537,1287.34599742333
-0.014799349470937,1287.35599742333
-0.0234320384027766,1287.36599742333
-0.0325415415843079,1287.37599742333
-0.0423036826137724,1287.38599742333
-0.0521944842301106,1287.39599742333
-0.0620276918182109,1287.40599742333
-0.0710624010239451,1287.41599742333
-0.0788463669450866,1287.42599742333
-0.0819856204025994,1287.43599742333
-0.0769894603784277,1287.44599742333
-0.0601997331989765,1287.45599742333
-0.0300418283076968,1287.46599742333
0.0103793384530479,1287.47599742333
0.0574364005439693,1287.48599742333
0.106657352555676,1287.49599742333
0.158533549567074,1287.50599742333
0.215676106296345,1287.51599742333
0.280589139412167,1287.52599742333
0.350947205799006,1287.53599742333
0.421252784670408,1287.54599742333
0.482525407366559,1287.55599742333
0.52831438318217,1287.56599742333
0.555222144328163,1287.57599742333
0.564545817004421,1287.58599742333
0.560246509398396,1287.59599742333
0.546897648824094,1287.60599742333
0.528499707056405,1287.61599742333
0.508246425632887,1287.62599742333
0.488309632486656,1287.63599742333
0.469097256258785,1287.64599742333
0.450935368297379,1287.65599742333
0.434055298813588,1287.66599742333
0.4178563867686,1287.67599742333
0.402504095212423,1287.68599742333
0.387406474531069,1287.69599742333
0.371639118185577,1287.70599742333
0.355282742786767,1287.71599742333
0.338090694396906,1287.72599742333
0.321401658996987,1287.73599742333
0.304925614118441,1287.74599742333
0.2901108659305,1287.75599742333
0.278201820194496,1287.76599742333
0.269976061224938,1287.77599742333
0.266155040617113,1287.78599742333
0.266693176545401,1287.79599742333
0.270686594464492,1287.80599742333
0.277246496939988,1287.81599742333
0.284503949696296,1287.82599742333
0.292208390662493,1287.83599742333
0.298825637653655,1287.84599742333
0.303239612420206,1287.85599742333
0.305401325061247,1287.86599742333
0.305346341751621,1287.87599742333
0.303263218177273,1287.88599742333
0.299790567197777,1287.89599742333
0.294943876737392,1287.90599742333
0.28908531540063,1287.91599742333
0.282197699975605,1287.92599742333
0.274527954760184,1287.93599742333
0.266422666187282,1287.94599742333
0.258260454119499,1287.95599742333
0.249229806470046,1287.96599742333
0.239929648971158,1287.97599742333
0.229750581544936,1287.98599742333
0.219315816733327,1287.99599742333
0.208732488636898,1288.00599742333
0.198207093810259,1288.01599742333
0.187952910889053,1288.02599742333
0.177297494299551,1288.03599742333
0.166834352190176,1288.04599742333
0.156948851103196,1288.05599742333
0.14745394737716,1288.06599742333
0.139151582972173,1288.07599742333
0.13213121652072,1288.08599742333
0.126489889452579,1288.09599742333
0.118781666136562,1288.10599742333
0.105187787231413,1288.11599742333
0.0823096094790037,1288.12599742333
0.0493655308796279,1288.13599742333
0.00838368095360242,1288.14599742333
-0.0359067910928373,1288.15599742333
-0.079421505252641,1288.16599742333
-0.117404502801816,1288.17599742333
-0.146737967214551,1288.18599742333
-0.164783901371012,1288.19599742333
-0.164396512267766,1288.20599742333
-0.139764406073165,1288.21599742333
-0.0869830270808364,1288.22599742333
-0.0126340117232775,1288.23599742333
0.0703059242060161,1288.24599742333
0.14867685545494,1288.25599742333
0.214287112893672,1288.26599742333
0.265344554993581,1288.27599742333
0.306715924192751,1288.28599742333
0.344035642911068,1288.29599742333
0.380627800608141,1288.30599742333
0.416723815389986,1288.31599742333
0.449384267839316,1288.32599742333
0.474454134836466,1288.33599742333
0.488495218583733,1288.34599742333
0.491724617752564,1288.35599742333
0.484120371764963,1288.36599742333
0.469491661048056,1288.37599742333
0.45033607920556,1288.38599742333
0.430309196659169,1288.39599742333
0.410971332882601,1288.40599742333
0.393639892659593,1288.41599742333
0.377884699310666,1288.42599742333
0.363208043949683,1288.43599742333
0.348714277272146,1288.44599742333
0.333621805317462,1288.45599742333
0.317755870793508,1288.46599742333
0.300996201800701,1288.47599742333
0.284065426048838,1288.48599742333
0.267762997401176,1288.49599742333
0.252221825895654,1288.50599742333
0.238752577545345,1288.51599742333
0.228748179141699,1288.52599742333
0.222504657706453,1288.53599742333
0.220447398430068,1288.54599742333
0.22155064776337,1288.55599742333
0.225377078438409,1288.56599742333
0.230790413428153,1288.57599742333
0.237444131734123,1288.58599742333
0.243766004110308,1288.59599742333
0.249291413321885,1288.60599742333
0.254018643011687,1288.61599742333
0.257341413040195,1288.62599742333
0.258768613606503,1288.63599742333
0.258985063718583,1288.64599742333
0.25863902592343,1288.65599742333
0.259060573228985,1288.66599742333
0.258859138590277,1288.67599742333
0.256459513968655,1288.68599742333
0.248982486759804,1288.69599742333
0.235239205141817,1288.70599742333
0.215290605624633,1288.71599742333
0.191529824920285,1288.72599742333
0.165589698449052,1288.73599742333
0.140409491543279,1288.74599742333
0.117902059347915,1288.75599742333
0.0975561252317755,1288.76599742333
0.0802790882677901,1288.77599742333
0.0653748440818533,1288.78599742333
0.0521143735349478,1288.79599742333
0.0402243344933809,1288.80599742333
0.0290557425668218,1288.81599742333
0.0179263420539414,1288.82599742333
0.00748648221520747,1288.83599742333
-0.00284400203480005,1288.84599742333
-0.0124375383132977,1288.85599742333
-0.0215250247896807,1288.86599742333
-0.0302165382873297,1288.87599742333
-0.0381431046599065,1288.88599742333
-0.04554488376722,1288.89599742333
-0.0517558556205579,1288.90599742333
-0.0561993412403263,1288.91599742333
-0.0569140042056241,1288.92599742333
-0.0508177864091299,1288.93599742333
-0.035792750266063,1288.94599742333
-0.00933835926477099,1288.95599742333
0.0281647250013182,1288.96599742333
0.07887951378388,1288.97599742333
0.14389203161977,1288.98599742333
0.225337357110487,1288.99599742333
0.322009473618613,1289.00599742333
0.430809962731564,1289.01599742333
0.544559200937491,1289.02599742333
0.652548610813622,1289.03599742333
0.745147169310559,1289.04599742333
0.815699033933404,1289.05599742333
0.862343359770351,1289.06599742333
0.887381015150578,1289.07599742333
0.896140582489592,1289.08599742333
0.893795341088637,1289.09599742333
0.885661094017112,1289.10599742333
0.874756063776725,1289.11599742333
0.862819918333832,1289.12599742333
0.850407154728063,1289.13599742333
0.837687994003399,1289.14599742333
0.824715704804228,1289.15599742333
0.810853718505835,1289.16599742333
0.796030708030562,1289.17599742333
0.780141327130175,1289.18599742333
0.763091931998271,1289.19599742333
0.745360666771737,1289.20599742333
0.726905383002093,1289.21599742333
0.709039152259695,1289.22599742333
0.692118835136717,1289.23599742333
0.676803089173625,1289.24599742333
0.663817924153944,1289.25599742333
0.653951414595992,1289.26599742333
0.646722936312948,1289.27599742333
0.642858296112387,1289.28599742333
0.641295666322971,1289.29599742333
0.642492584802292,1289.30599742333
0.64531001739979,1289.31599742333
0.648073946194744,1289.32599742333
0.650934332537928,1289.33599742333
0.652530277250649,1289.34599742333
0.65219246105807,1289.35599742333
0.649973619331751,1289.36599742333
0.645470310410695,1289.37599742333
0.639324740154037,1289.38599742333
0.632038623968705,1289.39599742333
0.624117766317471,1289.40599742333
0.615873167801571,1289.41599742333
0.606724507762115,1289.42599742333
0.597108898666728,1289.43599742333
0.586814561539003,1289.44599742333
0.575844510732223,1289.45599742333
0.5647191889989,1289.46599742333
0.553439849621974,1289.47599742333
0.542136336132343,1289.48599742333
0.530674700168702,1289.49599742333
0.519737269365536,1289.50599742333
0.508944873674367,1289.51599742333
0.498078980838771,1289.52599742333
0.486881918342282,1289.53599742333
0.475363991718385,1289.54599742333
0.463469862749391,1289.55599742333
0.451985899762164,1289.56599742333
0.440572041808647,1289.57599742333
0.429027110770069,1289.58599742333
0.417648784803296,1289.59599742333
0.406553860779043,1289.60599742333
0.396090044554836,1289.61599742333
0.385614324201814,1289.62599742333
0.376446592987825,1289.63599742333
0.368486275904815,1289.64599742333
0.36309643801453,1289.65599742333
0.362916474755806,1289.66599742333
0.370248450196899,1289.67599742333
0.387846154069437,1289.68599742333
0.414600137056821,1289.69599742333
0.448711160874663,1289.70599742333
0.48753114052897,1289.71599742333
0.53099005684556,1289.72599742333
0.58252924567611,1289.73599742333
0.643892579469388,1289.74599742333
0.711896351985887,1289.75599742333
0.779258789785849,1289.76599742333
0.837255304030676,1289.77599742333
0.878855611251589,1289.78599742333
0.900695339263957,1289.79599742333
0.905048756832608,1289.80599742333
0.895772972808588,1289.81599742333
0.878424854752394,1289.82599742333
0.857628169412929,1289.83599742333
0.835484619675048,1289.84599742333
0.814353731520201,1289.85599742333
0.794987597992145,1289.86599742333
0.776833308625437,1289.87599742333
0.760047560933616,1289.88599742333
0.743679456543011,1289.89599742333
0.727400658090912,1289.90599742333
0.710968637028092,1289.91599742333
0.694109603703755,1289.92599742333
0.677212192782164,1289.93599742333
0.660690336287015,1289.94599742333
0.645374072933784,1289.95599742333
0.632066380443243,1289.96599742333
0.621111802107824,1289.97599742333
0.613495260314654,1289.98599742333
0.609111646833778,1289.99599742333
0.607552083142647,1290.00599742333
0.608869057844664,1290.01599742333
0.61159658544345,1290.02599742333
0.615145281053829,1290.03599742333
0.618778974885824,1290.04599742333
0.621420996948721,1290.05599742333
0.622390363287565,1290.06599742333
0.621318491806584,1290.07599742333
0.617883839458172,1290.08599742333
0.612728896839697,1290.09599742333
0.605923844835292,1290.10599742333
0.59820511094437,1290.11599742333
0.590098847846453,1290.12599742333
0.581299810129168,1290.13599742333
0.572462519045677,1290.14599742333
0.562934535606999,1290.15599742333
0.553837794477125,1290.16599742333
0.543831875676412,1290.17599742333
0.534186279353165,1290.18599742333
0.524532503755595,1290.19599742333
0.514443188080703,1290.20599742333
0.504574869110797,1290.21599742333
0.494308209413946,1290.22599742333
0.484635644600123,1290.23599742333
0.474989653161952,1290.24599742333
0.465107813163482,1290.25599742333
0.454953204111201,1290.26599742333
0.444607238653397,1290.27599742333
0.434206343267693,1290.28599742333
0.423923114617121,1290.29599742333
0.413484799958705,1290.30599742333
0.403521240334243,1290.31599742333
0.393791978135955,1290.32599742333
0.383745872644348,1290.33599742333
0.3744045407891,1290.34599742333
0.364942045818342,1290.35599742333
0.355882677494581,1290.36599742333
0.347318729426749,1290.37599742333
0.33986520776748,1290.38599742333
0.33430193672317,1290.39599742333
0.334182554489402,1290.40599742333
0.341946076301223,1290.41599742333
0.359664135276931,1290.42599742333
0.386660374245624,1290.43599742333
0.422100494112942,1290.44599742333
0.467973414670425,1290.45599742333
0.527669105254482,1290.46599742333
0.601508696050186,1290.47599742333
0.683718951186674,1290.48599742333
0.762777698185457,1290.49599742333
0.827550190100185,1290.50599742333
0.871923074354169,1290.51599742333
0.894036738277884,1290.52599742333
0.898070338357067,1290.53599742333
0.88886268932378,1290.54599742333
0.872001637485355,1290.55599742333
0.851381377922003,1290.56599742333
0.829457383787363,1290.57599742333
0.807468834689144,1290.58599742333
0.785576850462341,1290.59599742333
0.76442948515708,1290.60599742333
0.744200071263429,1290.61599742333
0.725056481072324,1290.62599742333
0.707146282439999,1290.63599742333
0.690010081707012,1290.64599742333
0.673965431681678,1290.65599742333
0.658116258062713,1290.66599742333
0.64232353624203,1290.67599742333
0.626621758770338,1290.68599742333
0.611440794425126,1290.69599742333
0.597682471010391,1290.70599742333
0.585418723788307,1290.71599742333
0.575378586010623,1290.72599742333
0.568056984948792,1290.73599742333
0.563645296235819,1290.74599742333
0.561533513228756,1290.75599742333
0.56125076689069,1290.76599742333
0.562387204940186,1290.77599742333
0.564128460312985,1290.78599742333
0.565489569187065,1290.79599742333
0.566106008662501,1290.80599742333
0.565267080188664,1290.81599742333
0.56287054872292,1290.82599742333
0.558480913612842,1290.83599742333
0.552750747376593,1290.84599742333
0.545862733906668,1290.85599742333
0.5375582618735,1290.86599742333
0.528766429641214,1290.87599742333
0.519317015647717,1290.88599742333
0.509506910597763,1290.89599742333
0.499451774026207,1290.90599742333
0.489027864256343,1290.91599742333
0.478058151336809,1290.92599742333
0.466656253534216,1290.93599742333
0.455308244645523,1290.94599742333
0.444591309865451,1290.95599742333
0.43385530810654,1290.96599742333
0.423640938868882,1290.97599742333
0.413521388815553,1290.98599742333
0.403752320304472,1290.99599742333
0.393436557902076,1291.00599742333
0.382836510464542,1291.01599742333
0.372320133247998,1291.02599742333
0.362172661183242,1291.03599742333
0.351953494527007,1291.04599742333
0.342708118669599,1291.05599742333
0.333045459458607,1291.06599742333
0.324514116154407,1291.07599742333
0.316071103379176,1291.08599742333
0.307737398603312,1291.09599742333
0.299650577652144,1291.10599742333
0.29134136895586,1291.11599742333
0.283366813428494,1291.12599742333
0.275283731225492,1291.13599742333
0.267326483854562,1291.14599742333
0.259669370074153,1291.15599742333
0.251377268906049,1291.16599742333
0.243807193213132,1291.17599742333
0.236651091808555,1291.18599742333
0.231271628004995,1291.19599742333
0.230475688913009,1291.20599742333
0.237041115065258,1291.21599742333
0.253216703401391,1291.22599742333
0.279379673517141,1291.23599742333
0.318140578493963,1291.24599742333
0.37291718111885,1291.25599742333
0.445767604698374,1291.26599742333
0.532120730573677,1291.27599742333
0.62009176467142,1291.28599742333
0.697321102612267,1291.29599742333
0.755298332679318,1291.30599742333
0.792728948242253,1291.31599742333
0.810919053993945,1291.32599742333
0.814277590497824,1291.33599742333
0.807400946931339,1291.34599742333
0.794058498234883,1291.35599742333
0.776857473926319,1291.36599742333
0.757097277756556,1291.37599742333
0.735575357126971,1291.38599742333
0.71327253894307,1291.39599742333
0.690875627237396,1291.40599742333
0.669316505341067,1291.41599742333
0.649306505971223,1291.42599742333
0.631077516834462,1291.43599742333
0.614220223954942,1291.44599742333
0.598080184530841,1291.45599742333
0.582156623195448,1291.46599742333
0.566085173434963,1291.47599742333
0.550412505372768,1291.48599742333
0.534356077041718,1291.49599742333
0.519500678540626,1291.50599742333
0.506000908382938,1291.51599742333
0.494761289155122,1291.52599742333
0.485785475691866,1291.53599742333
0.479953211736526,1291.54599742333
0.4764217833386,1291.55599742333
0.476188141065887,1291.56599742333
0.477810026260636,1291.57599742333
0.480905280843677,1291.58599742333
0.485134096085157,1291.59599742333
0.489776095558799,1291.60599742333
0.494783962456988,1291.61599742333
0.499347070668506,1291.62599742333
0.50248538089138,1291.63599742333
0.504017567437106,1291.64599742333
0.503528101008433,1291.65599742333
0.501008189350254,1291.66599742333
0.496441852421227,1291.67599742333
0.489698053407914,1291.68599742333
0.48216873592336,1291.69599742333
0.473253701353706,1291.70599742333
0.463239227625619,1291.71599742333
0.452495784914883,1291.72599742333
0.441175337341009,1291.73599742333
0.429642200058979,1291.74599742333
0.41853680544814,1291.75599742333
0.408091582477698,1291.76599742333
0.397316880792112,1291.77599742333
0.386531892989374,1291.78599742333
0.375522189120682,1291.79599742333
0.363838419191939,1291.80599742333
0.351868205575968,1291.81599742333
0.339605478028867,1291.82599742333
0.326980711096555,1291.83599742333
0.314384528077116,1291.84599742333
0.302467117880663,1291.85599742333
0.291126544468638,1291.86599742333
0.280245376980421,1291.87599742333
0.270019251978703,1291.88599742333
0.260689506867224,1291.89599742333
0.252098628936536,1291.90599742333
0.243640042514158,1291.91599742333
0.235371572794243,1291.92599742333
0.22724932310377,1291.93599742333
0.219144689590717,1291.94599742333
0.211180704980706,1291.95599742333
0.202922358071336,1291.96599742333
0.195330403979258,1291.97599742333
0.188049745252142,1291.98599742333
0.181101921969984,1291.99599742333
0.173991551308899,1292.00599742333
0.166062883226068,1292.01599742333
0.157731142274783,1292.02599742333
0.148061653969515,1292.03599742333
0.138497044821837,1292.04599742333
0.128669205893044,1292.05599742333
0.119060841647919,1292.06599742333
0.109424665465524,1292.07599742333
0.100578611193964,1292.08599742333
0.0929868660330966,1292.09599742333
0.0875130995627934,1292.10599742333
0.08829824806936,1292.11599742333
0.0985616713685729,1292.12599742333
0.118988407616596,1292.13599742333
0.15028904831794,1292.14599742333
0.191273876549585,1292.15599742333
0.245457314745806,1292.16599742333
0.314217182674814,1292.17599742333
0.394177666293447,1292.18599742333
0.475094405473461,1292.19599742333
0.546321060835695,1292.20599742333
0.598929489617199,1292.21599742333
0.630776030523219,1292.22599742333
0.643649629865058,1292.23599742333
0.641970098381409,1292.24599742333
0.629814076365874,1292.25599742333
0.611203699827397,1292.26599742333
0.588720967681846,1292.27599742333
0.563699879475006,1292.28599742333
0.537391346871274,1292.29599742333
0.511318395708238,1292.30599742333
0.486849183344155,1292.31599742333
0.463517523095561,1292.32599742333
0.442089944638257,1292.33599742333
0.421986764554605,1292.34599742333
0.403111239091801,1292.35599742333
0.385750076518341,1292.36599742333
0.369110309902223,1292.37599742333
0.352700698808165,1292.38599742333
0.336639581810295,1292.39599742333
0.321876107416171,1292.40599742333
0.308607326577946,1292.41599742333
0.297253320530209,1292.42599742333
0.288841486936946,1292.43599742333
0.283712367366619,1292.44599742333
0.282977914965508,1292.45599742333
0.284828885149015,1292.46599742333
0.289474341623513,1292.47599742333
0.295821256073187,1292.48599742333
0.302389631793841,1292.49599742333
0.308936494044504,1292.50599742333
0.31377946594133,1292.51599742333
0.316596885396978,1292.52599742333
0.317751427463714,1292.53599742333
0.316477603020415,1292.54599742333
0.313788073819226,1292.55599742333
0.309715963272212,1292.56599742333
0.30388825305329,1292.57599742333
0.297565498558795,1292.58599742333
0.290348709972394,1292.59599742333
0.282778129204832,1292.60599742333
0.275164891535675,1292.61599742333
0.267021059739316,1292.62599742333
0.258776041617234,1292.63599742333
0.249675932908234,1292.64599742333
0.239837152897786,1292.65599742333
0.229527813848984,1292.66599742333
0.219065539103969,1292.67599742333
0.20808512511276,1292.68599742333
0.197534679381523,1292.69599742333
0.187117038417602,1292.70599742333
0.176702444811632,1292.71599742333
0.166761541264057,1292.72599742333
0.156896022346431,1292.73599742333
0.147177481659914,1292.74599742333
0.137339052060691,1292.75599742333
0.127895955103561,1292.76599742333
0.118563340079575,1292.77599742333
0.109670499710376,1292.78599742333
0.101162285951221,1292.79599742333
0.0928065821959755,1292.80599742333
0.0852700236561747,1292.81599742333
0.0786216993475689,1292.82599742333
0.0718670776161673,1292.83599742333
0.064853181468231,1292.84599742333
0.057361559073961,1292.85599742333
0.0499297420169708,1292.86599742333
0.0418251806364416,1292.87599742333
0.0339051985982,1292.88599742333
0.0259363093021236,1292.89599742333
0.0185129785136502,1292.90599742333
0.0116911241559681,1292.91599742333
0.00614528225916954,1292.92599742333
0.00196659434101216,1292.93599742333
0.00246388797526478,1292.94599742333
0.0104481752269667,1292.95599742333
0.0286441665290443,1292.96599742333
0.0575345250772677,1292.97599742333
0.0959156883853641,1292.98599742333
0.146776876785166,1292.99599742333
0.212835459773257,1293.00599742333
0.292636988524596,1293.01599742333
0.377517383432637,1293.02599742333
0.455837786915706,1293.03599742333
0.518472876471012,1293.04599742333
0.560518545098911,1293.05599742333
0.582376339465405,1293.06599742333
0.587546664810573,1293.07599742333
0.58025362727074,1293.08599742333
0.565296208167023,1293.09599742333
0.545934284524321,1293.10599742333
0.523494831891374,1293.11599742333
0.500222873644605,1293.12599742333
0.476822843579258,1293.13599742333
0.453882254242789,1293.14599742333
0.431758010307023,1293.15599742333
0.410414862845317,1293.16599742333
0.390481474623034,1293.17599742333
0.371588263061141,1293.18599742333
0.354295121629524,1293.19599742333
0.337790333991312,1293.20599742333
0.32205987127545,1293.21599742333
0.306596396637921,1293.22599742333
0.291758028685148,1293.23599742333
0.277892063442549,1293.24599742333
0.26603586180655,1293.25599742333
0.256260372629579,1293.26599742333
0.248786431776389,1293.27599742333
0.244076412138099,1293.28599742333
0.242570480827168,1293.29599742333
0.243678209236359,1293.30599742333
0.246362786725152,1293.31599742333
0.250181658730273,1293.32599742333
0.254182978506837,1293.33599742333
0.257265918406273,1293.34599742333
0.259907298976242,1293.35599742333
0.260913901366403,1293.36599742333
0.260859974560642,1293.37599742333
0.259575065180441,1293.38599742333
0.25614733491378,1293.39599742333
0.250877744648825,1293.40599742333
0.244482417371261,1293.41599742333
0.236950588736511,1293.42599742333
0.228151256374661,1293.43599742333
0.219603526706565,1293.44599742333
0.210742723836614,1293.45599742333
0.201676742368508,1293.46599742333
0.192354588461043,1293.47599742333
0.182863816804852,1293.48599742333
0.173188792233583,1293.49599742333
0.163152476231164,1293.50599742333
0.152939801983678,1293.51599742333
0.142452395868426,1293.52599742333
0.132244459023947,1293.53599742333
0.121687747922251,1293.54599742333
0.111698738228373,1293.55599742333
0.102227640703136,1293.56599742333
0.0925411338416979,1293.57599742333
0.0833094013243446,1293.58599742333
0.0737636951107931,1293.59599742333
0.0646626321797334,1293.60599742333
0.0551601569402164,1293.61599742333
0.0460713930351795,1293.62599742333
0.0372646659129005,1293.63599742333
0.0288615281639933,1293.64599742333
0.0211645673949418,1293.65599742333
0.0142567691511677,1293.66599742333
0.00836800682543169,1293.67599742333
0.00236841870519935,1293.68599742333
-0.00378330995996313,1293.69599742333
-0.0107210310410361,1293.70599742333
-0.0178821659986508,1293.71599742333
-0.0257214311283957,1293.72599742333
-0.0336219760807748,1293.73599742333
-0.0412657696870819,1293.74599742333
-0.0490287472052038,1293.75599742333
-0.0565504701601068,1293.76599742333
-0.0640326884296765,1293.77599742333
-0.0714072922797141,1293.78599742333
-0.0791622404109871,1293.79599742333
-0.0871869651563379,1293.80599742333
-0.0946163242788665,1293.81599742333
-0.0992620129246689,1293.82599742333
-0.0982650956089115,1293.83599742333
-0.0876619056863633,1293.84599742333
-0.0655028915444523,1293.85599742333
-0.0325004035618647,1293.86599742333
0.00873239878105844,1293.87599742333
0.0595521322771269,1293.88599742333
0.12203466838374,1293.89599742333
0.19740854398996,1293.90599742333
0.27990103717365,1293.91599742333
0.359739208714657,1293.92599742333
0.426350776278617,1293.93599742333
0.473458099512517,1293.94599742333
0.500772627489397,1293.95599742333
0.510460224006011,1293.96599742333
0.506278494314924,1293.97599742333
0.493566599116026,1293.98599742333
0.475543245975991,1293.99599742333
0.454305487163093,1294.00599742333
0.431985789667854,1294.01599742333
0.409222396603703,1294.02599742333
0.386730385870814,1294.03599742333
0.364594769271097,1294.04599742333
0.343240128491321,1294.05599742333
0.323203164716705,1294.06599742333
0.304736744475681,1294.07599742333
0.288336379113025,1294.08599742333
0.272772393361812,1294.09599742333
0.257986586048172,1294.10599742333
0.243324140408588,1294.11599742333
0.22871489763068,1294.12599742333
0.215280930020873,1294.13599742333
0.20394546534568,1294.14599742333
0.195260132911952,1294.15599742333
0.189535797205751,1294.16599742333
0.187907370218168,1294.17599742333
0.189505387488079,1294.18599742333
0.193862835202955,1294.19599742333
0.199998626474811,1294.20599742333
0.206518727833391,1294.21599742333
0.212142004864082,1294.22599742333
0.216695408942722,1294.23599742333
0.219381395212728,1294.24599742333
0.220369607300708,1294.25599742333
0.219733663320291,1294.26599742333
0.217267941875142,1294.27599742333
0.212896255125001,1294.28599742333
0.206913636072292,1294.29599742333
0.199830363390775,1294.30599742333
0.192270971587296,1294.31599742333
0.1842563819648,1294.32599742333
0.175296459110682,1294.33599742333
0.165795942422934,1294.34599742333
0.155840963483536,1294.35599742333
0.146315459165936,1294.36599742333
0.137174310789041,1294.37599742333
0.128248747629814,1294.38599742333
0.119429838436022,1294.39599742333
0.110979228434352,1294.40599742333
0.102974334651968,1294.41599742333
0.0945601916750286,1294.42599742333
0.0858034825392861,1294.43599742333
0.0770754039253999,1294.44599742333
0.0683901698835032,1294.45599742333
0.059763963713051,1294.46599742333
0.0517585785552621,1294.47599742333
0.0438291557946933,1294.48599742333
0.0362132780779656,1294.49599742333
0.028672817026442,1294.50599742333
0.0208376502219923,1294.51599742333
0.013798334654437,1294.52599742333
0.00643869923588388,1294.53599742333
-0.00030471186462771,1294.54599742333
-0.0070665227993697,1294.55599742333
-0.0144489684432402,1294.56599742333
-0.0225326621550063,1294.57599742333
-0.0307109001039688,1294.58599742333
-0.0390349210390387,1294.59599742333
-0.0478056885729403,1294.60599742333
-0.0568536986237439,1294.61599742333
-0.0661822687042848,1294.62599742333
-0.0745822127968086,1294.63599742333
-0.0823026140241046,1294.64599742333
-0.0869489224744595,1294.65599742333
-0.0855822910642601,1294.66599742333
-0.0748540976810371,1294.67599742333
-0.0531131258635207,1294.68599742333
-0.0205552934400856,1294.69599742333
0.0223396203973496,1294.70599742333
0.0780920080423595,1294.71599742333
0.150045473906647,1294.72599742333
0.235670717956103,1294.73599742333
0.325359433184085,1294.74599742333
0.407085300737436,1294.75599742333
0.471073596673507,1294.76599742333
0.513627445992639,1294.77599742333
0.535241311779607,1294.78599742333
0.540126304390596,1294.79599742333
0.532685545947429,1294.80599742333
0.517461945195107,1294.81599742333
0.497315604245852,1294.82599742333
0.47476867119815,1294.83599742333
0.450827824084833,1294.84599742333
0.426409174199952,1294.85599742333
0.402173356095766,1294.86599742333
0.378485316710377,1294.87599742333
0.356789672698191,1294.88599742333
0.336951427422003,1294.89599742333
0.319369005099029,1294.90599742333
0.302955968544335,1294.91599742333
0.28705487461336,1294.92599742333
0.271718950607527,1294.93599742333
0.256967696372669,1294.94599742333
0.242788110019902,1294.95599742333
0.229090123251269,1294.96599742333
0.217492588693284,1294.97599742333
0.208271528967263,1294.98599742333
0.201391069346943,1294.99599742333
0.197735237632685,1295.00599742333
0.196359334960428,1295.01599742333
0.197319743214904,1295.02599742333
0.199817803568984,1295.03599742333
0.202577499953515,1295.04599742333
0.205912235954625,1295.05599742333
0.20841002695482,1295.06599742333
0.209518505717543,1295.07599742333
0.209698607878018,1295.08599742333
0.208297610647723,1295.09599742333
0.205556820229576,1295.10599742333
0.20132300042601,1295.11599742333
0.1951732149405,1295.12599742333
0.187431888656173,1295.13599742333
0.179030208861847,1295.14599742333
0.170291258426293,1295.15599742333
0.160867556729702,1295.16599742333
0.152009879718891,1295.17599742333
0.14323959175718,1295.18599742333
0.134719265167785,1295.19599742333
0.126469205658566,1295.20599742333
0.117973798595761,1295.21599742333
0.109822454522887,1295.22599742333
0.101262675954487,1295.23599742333
0.0925898007804496,1295.24599742333
0.0834180049662009,1295.25599742333
0.0742570027333203,1295.26599742333
0.0646185368272816,1295.27599742333
0.0551707674403146,1295.28599742333
0.0457546476146326,1295.29599742333
0.036659649920043,1295.30599742333
0.0280912769899128,1295.31599742333
0.0197702794840423,1295.32599742333
0.0118225047503395,1295.33599742333
0.00379396818512121,1295.34599742333
-0.00429017386886997,1295.35599742333
-0.0126337706564889,1295.36599742333
-0.0207992433628583,1295.37599742333
-0.0279745075386565,1295.38599742333
-0.035068418981861,1295.39599742333
-0.0413361033100551,1295.40599742333
-0.0475438384576759,1295.41599742333
-0.0532743587571026,1295.42599742333
-0.0594187399008089,1295.43599742333
-0.0659423617957609,1295.44599742333
-0.0727520779134248,1295.45599742333
-0.0806229445692764,1295.46599742333
-0.088363918608541,1295.47599742333
-0.0960528605846173,1295.48599742333
-0.103668905215436,1295.49599742333
-0.111113472033848,1295.50599742333
-0.118947742887459,1295.51599742333
-0.125835852027147,1295.52599742333
-0.130833928664664,1295.53599742333
-0.131061745434294,1295.54599742333
-0.122754514596101,1295.55599742333
-0.103737867132314,1295.56599742333
-0.0736994247390106,1295.57599742333
-0.0340215112493302,1295.58599742333
0.0157937807847067,1295.59599742333
0.0796263642422912,1295.60599742333
0.157394493138889,1295.61599742333
0.241914492184895,1295.62599742333
0.322638227217931,1295.63599742333
0.388888889494243,1295.64599742333
0.435106550926037,1295.65599742333
0.460430277662656,1295.66599742333
0.467522313020862,1295.67599742333
0.461474405138027,1295.68599742333
0.445693237818024,1295.69599742333
0.424471762660632,1295.70599742333
0.400084797304172,1295.71599742333
0.373751915206439,1295.72599742333
0.347508982572367,1295.73599742333
0.321494867177379,1295.74599742333
0.296971713037741,1295.75599742333
0.274590997747546,1295.76599742333
0.253683851404521,1295.77599742333
0.234201552260994,1295.78599742333
0.216488202916785,1295.79599742333
0.199842733387135,1295.80599742333
0.183447172035444,1295.81599742333
0.16774515545992,1295.82599742333
0.152111210973072,1295.83599742333
0.136669218502252,1295.84599742333
0.122221616345718,1295.85599742333
0.110474104519087,1295.86599742333
0.101427288742323,1295.87599742333
0.0960173184457004,1295.88599742333
0.093904251123711,1295.89599742333
0.0950913390896691,1295.90599742333
0.0995246579938352,1295.91599742333
0.105573900187564,1295.92599742333
0.111853614478869,1295.93599742333
0.117259140235926,1295.94599742333
0.12143356409756,1295.95599742333
0.123538120407909,1295.96599742333
0.12334124527468,1295.97599742333
0.120932420064281,1295.98599742333
0.117160646851448,1295.99599742333
0.112968323382349,1296.00599742333
0.108358860064989,1296.01599742333
0.102863730980807,1296.02599742333
0.0970572305632053,1296.03599742333
0.0902575178397417,1296.04599742333
0.0835554452857855,1296.05599742333
0.0763628509923454,1296.06599742333
0.0686195633919858,1296.07599742333
0.0607742250744046,1296.08599742333
0.0529149043609949,1296.09599742333
0.0452063838933622,1296.10599742333
0.0368313155896877,1296.11599742333
0.0282090247676415,1296.12599742333
0.0194456198021459,1296.13599742333
0.0106691527060637,1296.14599742333
0.00238413658218886,1296.15599742333
-0.00605153115406859,1296.16599742333
-0.0142511350679385,1296.17599742333
-0.0220782009550996,1296.18599742333
-0.029460248742703,1296.19599742333
-0.0365167736964026,1296.20599742333
-0.0432653817821677,1296.21599742333
-0.0506006861981131,1296.22599742333
-0.0582037468148492,1296.23599742333
-0.0656253240703898,1296.24599742333
-0.0732727550470008,1296.25599742333
-0.0807427915635596,1296.26599742333
-0.0877745534359171,1296.27599742333
-0.0948813434322468,1296.28599742333
-0.101584271058458,1296.29599742333
-0.108286155711156,1296.30599742333
-0.114918769393628,1296.31599742333
-0.121397916900712,1296.32599742333
-0.127206091850585,1296.33599742333
-0.132796391259589,1296.34599742333
-0.137561221549758,1296.35599742333
-0.142409690271991,1296.36599742333
-0.147672344762869,1296.37599742333
-0.153806246094398,1296.38599742333
-0.160484775112157,1296.39599742333
-0.167925005809595,1296.40599742333
-0.175765398407587,1296.41599742333
-0.183569502625583,1296.42599742333
-0.19144668034245,1296.43599742333
-0.198490445246979,1296.44599742333
-0.204496772419538,1296.45599742333
-0.206894231822946,1296.46599742333
-0.202321105396525,1296.47599742333
-0.187433801152297,1296.48599742333
-0.160684825944378,1296.49599742333
-0.123231847798225,1296.50599742333
-0.0759480889539499,1296.51599742333
-0.017096903414846,1296.52599742333
0.0534156240075618,1296.53599742333
0.132315748146885,1296.54599742333
0.210113199416251,1296.55599742333
0.276793066306482,1296.56599742333
0.325738716015881,1296.57599742333
0.354374782404172,1296.58599742333
0.364866193212199,1296.59599742333
0.360876861500142,1296.60599742333
0.347329109630535,1296.61599742333
0.327870965541541,1296.62599742333
0.305118634325645,1296.63599742333
0.280307434658359,1296.64599742333
0.255000984374351,1296.65599742333
0.229988066009,1296.66599742333
0.205649431802236,1296.67599742333
0.182842583374778,1296.68599742333
0.161208463293758,1296.69599742333
0.141075769728191,1296.70599742333
0.122044825914297,1296.71599742333
0.104128370954888,1296.72599742333
0.0864964532777538,1296.73599742333
0.0694745133139492,1296.74599742333
0.0521931730801733,1296.75599742333
0.0355267833512767,1296.76599742333
0.0203758669085523,1296.77599742333
0.0074831480167536,1296.78599742333
-0.00162003739123228,1296.79599742333
-0.00645881454999976,1296.80599742333
-0.00753305557402029,1296.81599742333
-0.00434001502363254,1296.82599742333
0.00209048344255052,1296.83599742333
0.0105526394417372,1296.84599742333
0.0197324334301626,1296.85599742333
0.0284591496163555,1296.86599742333
0.0348644656971491,1296.87599742333
0.0398833665975381,1296.88599742333
0.0418526599582438,1296.89599742333
0.0416953937608882,1296.90599742333
0.0400466735569278,1296.91599742333
0.0366859850772369,1296.92599742333
0.032392213103234,1296.93599742333
0.0274170649662065,1296.94599742333
0.0221013543567827,1296.95599742333
0.0160928922063958,1296.96599742333
0.00984647973687288,1296.97599742333
0.00305801907815441,1296.98599742333
-0.00416253055197112,1296.99599742333
-0.0119309588446424,1297.00599742333
-0.0203634593312044,1297.01599742333
-0.0290320781673088,1297.02599742333
-0.0377236570868056,1297.03599742333
-0.0470228758106099,1297.04599742333
-0.0560773405095228,1297.05599742333
-0.0651454771513675,1297.06599742333
-0.0738466502255666,1297.07599742333
-0.0825154352374718,1297.08599742333
-0.0913579647197068,1297.09599742333
-0.0987924006481258,1297.10599742333
-0.106685422084882,1297.11599742333
-0.113903186261657,1297.12599742333
-0.121155033950128,1297.13599742333
-0.127795915724114,1297.14599742333
-0.134489789670872,1297.15599742333
-0.140866887192432,1297.16599742333
-0.147033016775836,1297.17599742333
-0.153543503000472,1297.18599742333
-0.160185560955397,1297.19599742333
-0.166310889398594,1297.20599742333
-0.172321623875962,1297.21599742333
-0.177629572057249,1297.22599742333
-0.182624924236253,1297.23599742333
-0.187989699882266,1297.24599742333
-0.194049078055457,1297.25599742333
-0.200804222546521,1297.26599742333
-0.20812470201153,1297.27599742333
-0.215857879154813,1297.28599742333
-0.223389932925424,1297.29599742333
-0.229916298573696,1297.30599742333
-0.233995486305359,1297.31599742333
-0.23292711108961,1297.32599742333
-0.223451735488548,1297.33599742333
-0.203494729960184,1297.34599742333
-0.172459249086552,1297.35599742333
-0.132440402096021,1297.36599742333
-0.0821005853972359,1297.37599742333
-0.0206560855949635,1297.38599742333
0.0501672707534185,1297.39599742333
0.123375483541442,1297.40599742333
0.18973771483048,1297.41599742333
0.241622888721304,1297.42599742333
0.274608044025947,1297.43599742333
0.289375152951066,1297.44599742333
0.289404922068962,1297.45599742333
0.278424131084656,1297.46599742333
0.259936547434979,1297.47599742333
0.237605000582417,1297.48599742333
0.212134651496809,1297.49599742333
0.186224415146259,1297.50599742333
0.16076897923441,1297.51599742333
0.135904109265103,1297.52599742333
0.112597778823029,1297.53599742333
0.0909805248543967,1297.54599742333
0.0711010401387277,1297.55599742333
0.0528067944832984,1297.56599742333
0.0355785766250217,1297.57599742333
0.0184381610180446,1297.58599742333
0.0019756596127066,1297.59599742333
-0.0145041627331408,1297.60599742333
-0.0304915205618577,1297.61599742333
-0.0460261640560706,1297.62599742333
-0.0587159960555628,1297.63599742333
-0.0683763151528895,1297.64599742333
-0.0739500758354589,1297.65599742333
-0.0750211281756132,1297.66599742333
-0.072114452706065,1297.67599742333
-0.0663869334411325,1297.68599742333
-0.0577299335446488,1297.69599742333
-0.048714956983599,1297.70599742333
-0.039564155557321,1297.71599742333
-0.0321141572028091,1297.72599742333
-0.0270800766468763,1297.73599742333
-0.0239224742557644,1297.74599742333
-0.0241964118813152,1297.75599742333
-0.0255860827711562,1297.76599742333
-0.0282155400771398,1297.77599742333
-0.0324552895031826,1297.78599742333
-0.0373157672681039,1297.79599742333
-0.0429217814212894,1297.80599742333
-0.0488262595084262,1297.81599742333
-0.0552029114471551,1297.82599742333
-0.0617364505014891,1297.83599742333
-0.0690156538386624,1297.84599742333
-0.0762003127704397,1297.85599742333
-0.0836468366145115,1297.86599742333
-0.0910486841719278,1297.87599742333
-0.0984846685065921,1297.88599742333
-0.106016966281119,1297.89599742333
-0.113511331867547,1297.90599742333
-0.121213788522155,1297.91599742333
-0.128720105806445,1297.92599742333
-0.136868384909323,1297.93599742333
-0.145496847721478,1297.94599742333
-0.153442653705297,1297.95599742333
-0.161054161150595,1297.96599742333
-0.168367015069363,1297.97599742333
-0.175755102369542,1297.98599742333
-0.182794813859418,1297.99599742333
-0.189421684585637,1298.00599742333
-0.195670310051895,1298.01599742333
-0.201385552078565,1298.02599742333
-0.206804556790834,1298.03599742333
-0.211815537015103,1298.04599742333
-0.216268126126267,1298.05599742333
-0.220964514240632,1298.06599742333
-0.226111551356539,1298.07599742333
-0.23122695787153,1298.08599742333
-0.236966797152362,1298.09599742333
-0.242538625615733,1298.10599742333
-0.248600046094905,1298.11599742333
-0.255228359111644,1298.12599742333
-0.262020225694651,1298.13599742333
-0.26808305207045,1298.14599742333
-0.272406879906851,1298.15599742333
-0.272380639812648,1298.16599742333
-0.264147639174684,1298.17599742333
-0.24454217134316,1298.18599742333
-0.213515736306879,1298.19599742333
-0.171941886274964,1298.20599742333
-0.118785545594734,1298.21599742333
-0.0531521099874325,1298.22599742333
0.0220935129810397,1298.23599742333
0.098951605874894,1298.24599742333
0.168202579532356,1298.25599742333
0.22237111065486,1298.26599742333
0.257855570468598,1298.27599742333
0.275260900275396,1298.28599742333
0.278533042686495,1298.29599742333
0.271012116429446,1298.30599742333
0.256101841588884,1298.31599742333
0.236456173772116,1298.32599742333
0.21366726060233,1298.33599742333
0.189697205040659,1298.34599742333
0.165019651922556,1298.35599742333
0.14064587229849,1298.36599742333
0.116837540044441,1298.37599742333
0.094678709468828,1298.38599742333
0.0745226068584178,1298.39599742333
0.0558705683833127,1298.40599742333
0.0386023672215283,1298.41599742333
0.0222873731465944,1298.42599742333
0.00692165885789586,1298.43599742333
-0.00815444317116878,1298.44599742333
-0.0233128817755134,1298.45599742333
-0.0382556441999267,1298.46599742333
-0.051692562678413,1298.47599742333
-0.0631711331311529,1298.48599742333
-0.0721401596763461,1298.49599742333
-0.0774399092157415,1298.50599742333
-0.0793693897257937,1298.51599742333
-0.0779366722129152,1298.52599742333
-0.073683413012536,1298.53599742333
-0.0678885318996208,1298.54599742333
-0.0606048754878831,1298.55599742333
-0.0533479395949447,1298.56599742333
-0.0468555231152905,1298.57599742333
-0.0421122451041545,1298.58599742333
-0.0390654926100008,1298.59599742333
-0.0379720472510977,1298.60599742333
-0.0390141403352878,1298.61599742333
-0.0418278958478448,1298.62599742333
-0.0458558379965739,1298.63599742333
-0.0507798872502803,1298.64599742333
-0.0557483545155823,1298.65599742333
-0.0604655611236176,1298.66599742333
-0.0657431748105453,1298.67599742333
-0.0711377953459034,1298.68599742333
-0.0768759817968967,1298.69599742333
-0.0834074401085967,1298.70599742333
-0.0903344993390658,1298.71599742333
-0.0973459713469853,1298.72599742333
-0.104642132901021,1298.73599742333
-0.112288325539321,1298.74599742333
-0.119355407323011,1298.75599742333
-0.126417057666521,1298.76599742333
-0.1336507389698,1298.77599742333
-0.140887831107465,1298.78599742333
-0.147828912025446,1298.79599742333
-0.154872147119192,1298.80599742333
-0.162122175181953,1298.81599742333
-0.169327598071309,1298.82599742333
-0.176806015280224,1298.83599742333
-0.183871118658182,1298.84599742333
-0.190144012203339,1298.85599742333
-0.196233773601636,1298.86599742333
-0.201552173675126,1298.87599742333
-0.206176850803667,1298.88599742333
-0.211294899978311,1298.89599742333
-0.216472152278041,1298.90599742333
-0.221892341796513,1298.91599742333
-0.227017048533481,1298.92599742333
-0.232132641522057,1298.93599742333
-0.237478999144202,1298.94599742333
-0.242306688606595,1298.95599742333
-0.24782300323648,1298.96599742333
-0.253310916388837,1298.97599742333
-0.25925735353552,1298.98599742333
-0.265641478950992,1298.99599742333
-0.272591445207688,1299.00599742333
-0.278956173988438,1299.01599742333
-0.283947715074592,1299.02599742333
-0.286526773552744,1299.03599742333
-0.283231731789796,1299.04599742333
-0.271041394884315,1299.05599742333
-0.247412314035685,1299.06599742333
-0.213005203909638,1299.07599742333
-0.168000735669179,1299.08599742333
-0.112065453143997,1299.09599742333
-0.0443243543861739,1299.10599742333
0.0308977960255969,1299.11599742333
0.105830641948347,1299.12599742333
0.170624629187948,1299.13599742333
0.219341663085115,1299.14599742333
0.249876236855927,1299.15599742333
0.26328171030925,1299.16599742333
0.263156158981091,1299.17599742333
0.252620546123333,1299.18599742333
0.235347768349351,1299.19599742333
0.213670175628839,1299.20599742333
0.190241243318901,1299.21599742333
0.165784790481342,1299.22599742333
0.140478075472764,1299.23599742333
0.115660943187962,1299.24599742333
0.0923319304141798,1299.25599742333
0.0711581253315995,1299.26599742333
0.0516980366711228,1299.27599742333
0.0340000908901735,1299.28599742333
0.0176419569921509,1299.29599742333
0.00221209902766322,1299.30599742333
-0.013219891246754,1299.31599742333
-0.0289594478931369,1299.32599742333
-0.0446838772376861,1299.33599742333
-0.0593137008059264,1299.34599742333
-0.0727526448794497,1299.35599742333
-0.0830777764174973,1299.36599742333
-0.0896480602794447,1299.37599742333
-0.0923598663450956,1299.38599742333
-0.0905000205580219,1299.39599742333
-0.0855644544795661,1299.40599742333
-0.0779379253368411,1299.41599742333
-0.0698831060292592,1299.42599742333
-0.0626109917074626,1299.43599742333
-0.0560674645912711,1299.44599742333
-0.0511001696043875,1299.45599742333
-0.047634823409897,1299.46599742333
-0.045843878905755,1299.47599742333
-0.0455808997030984,1299.48599742333
-0.0464898360673756,1299.49599742333
-0.0488165759769308,1299.50599742333
-0.0524220548142389,1299.51599742333
-0.0572039500189289,1299.52599742333
-0.0622851946571947,1299.53599742333
-0.0679198201996896,1299.54599742333
-0.0737620180873623,1299.55599742333
-0.0798001904632801,1299.56599742333
-0.085938144991526,1299.57599742333
-0.0921612476542421,1299.58599742333
-0.0985681104055608,1299.59599742333
-0.105118639667282,1299.60599742333
-0.112019003623221,1299.61599742333
-0.118790349041373,1299.62599742333
-0.125441086500051,1299.63599742333
-0.131932135614555,1299.64599742333
-0.138670042902412,1299.65599742333
-0.145562950124122,1299.66599742333
-0.152618294653898,1299.67599742333
-0.159427641608895,1299.68599742333
-0.165999556707185,1299.69599742333
-0.172560019827591,1299.70599742333
-0.178728170992881,1299.71599742333
-0.184587735736554,1299.72599742333
-0.189673382797744,1299.73599742333
-0.194155883898662,1299.74599742333
-0.198536706828782,1299.75599742333
-0.20277616092199,1299.76599742333
-0.20685982831084,1299.77599742333
-0.210897137938979,1299.78599742333
-0.214788969192489,1299.79599742333
-0.218715316097779,1299.80599742333
-0.222755590277189,1299.81599742333
-0.227049027458349,1299.82599742333
-0.231805271626905,1299.83599742333
-0.237877519724066,1299.84599742333
-0.243982569196282,1299.85599742333
-0.249472525551578,1299.86599742333
-0.252779730966612,1299.87599742333
-0.251992264355524,1299.88599742333
-0.24358816695739,1299.89599742333
-0.224491609549686,1299.90599742333
-0.194646057960431,1299.91599742333
-0.154646465264993,1299.92599742333
-0.102934778955144,1299.93599742333
-0.0391279136285076,1299.94599742333
0.0344261562214104,1299.95599742333
0.109462438158033,1299.96599742333
0.176783234603129,1299.97599742333
0.229511182138855,1299.98599742333
0.263555893586371,1299.99599742333
0.279666734635782,1300.00599742333
0.281147020753453,1300.01599742333
0.271787375881422,1300.02599742333
0.255537931227605,1300.03599742333
0.2347260177244,1300.04599742333
0.211498219947022,1300.05599742333
0.187038270187807,1300.06599742333
0.162302651376659,1300.07599742333
0.137790166518322,1300.08599742333
0.11429775352671,1300.09599742333
0.0921896033332934,1300.10599742333
0.0717597746183842,1300.11599742333
0.0527541351054815,1300.12599742333
0.0350039719609029,1300.13599742333
0.0187903224935415,1300.14599742333
0.00218019427047915,1300.15599742333
-0.0141035737863505,1300.16599742333
-0.0297525299785163,1300.17599742333
-0.0441894301338486,1300.18599742333
-0.0563438629111561,1300.19599742333
-0.0658919596272611,1300.20599742333
-0.0716263686941573,1300.21599742333
-0.0731472968268469,1300.22599742333
-0.0707155450785018,1300.23599742333
-0.0645634794190426,1300.24599742333
-0.0561038925683215,1300.25599742333
-0.046412292649627,1300.26599742333
-0.0372196180947361,1300.27599742333
-0.0291976206794003,1300.28599742333
-0.0232652387833281,1300.29599742333
-0.0193295697700776,1300.30599742333
-0.017839071742912,1300.31599742333
-0.0179403252389376,1300.32599742333
-0.0197523184407839,1300.33599742333
-0.0228230692251826,1300.34599742333
-0.0264834825813722,1300.35599742333
-0.0311719067474111,1300.36599742333
-0.0364633644211576,1300.37599742333
-0.0424779937596976,1300.38599742333
-0.0487671492637248,1300.39599742333
-0.0551351678425108,1300.40599742333
-0.0614370248505204,1300.41599742333
-0.0676213575706438,1300.42599742333
-0.0734361392169263,1300.43599742333
-0.0792522232181379,1300.44599742333
-0.0850465561260718,1300.45599742333
-0.091119563387561,1300.46599742333
-0.0980132248399935,1300.47599742333
-0.1052752137734,1300.48599742333
-0.113053279505565,1300.49599742333
-0.120578747081404,1300.50599742333
-0.128124479880987,1300.51599742333
-0.135160451842314,1300.52599742333
-0.1418066628907,1300.53599742333
-0.147909586542266,1300.54599742333
-0.154194588729666,1300.55599742333
-0.159972061594391,1300.56599742333
-0.165604673896656,1300.57599742333
-0.17106342921031,1300.58599742333
-0.175991993373336,1300.59599742333
-0.18100287189079,1300.60599742333
-0.185863820002981,1300.61599742333
-0.191536911212896,1300.62599742333
-0.196938205047745,1300.63599742333
-0.202620328767558,1300.64599742333
-0.208632694222276,1300.65599742333
-0.214942165712362,1300.66599742333
-0.221227648162885,1300.67599742333
-0.226404646632184,1300.68599742333
-0.229018218754815,1300.69599742333
-0.226284301568613,1300.70599742333
-0.215660978039641,1300.71599742333
-0.19451050456952,1300.72599742333
-0.162304891038844,1300.73599742333
-0.119315842234202,1300.74599742333
-0.0643281994195099,1300.75599742333
0.00301588443167678,1300.76599742333
0.0797221436693983,1300.77599742333
0.156744009868746,1300.78599742333
0.224402455275632,1300.79599742333
0.276031651025108,1300.80599742333
0.309100976729307,1300.81599742333
0.324120145376268,1300.82599742333
0.324833274807951,1300.83599742333
0.31575900576657,1300.84599742333
0.299422665520972,1300.85599742333
0.279189684953515,1300.86599742333
0.256784575470054,1300.87599742333
0.233075883911124,1300.88599742333
0.208826100251891,1300.89599742333
0.185327685137738,1300.90599742333
0.163201045046789,1300.91599742333
0.141777757783953,1300.92599742333
0.122460588565214,1300.93599742333
0.105402014713401,1300.94599742333
0.0900192221415798,1300.95599742333
0.0760035786466213,1300.96599742333
0.0624241663399184,1300.97599742333
0.0490087281667207,1300.98599742333
0.0357719437014835,1300.99599742333
0.0229602827764627,1301.00599742333
0.0114285697620668,1301.01599742333
0.0016754925015602,1301.02599742333
-0.00603604399520832,1301.03599742333
-0.010503414271139,1301.04599742333
-0.0115848565587384,1301.05599742333
-0.0099329704069289,1301.06599742333
-0.00572819306322692,1301.07599742333
-0.000369076531828543,1301.08599742333
0.00567816974433497,1301.09599742333
0.0106307299624849,1301.10599742333
0.014122442874074,1301.11599742333
0.0159143660819917,1301.12599742333
0.0158999296504349,1301.13599742333
0.0135721563608226,1301.14599742333
0.00969060036939067,1301.15599742333
0.00532007980052723,1301.16599742333
0.000169248500166184,1301.17599742333
-0.00517752052059457,1301.18599742333
-0.0104883401594463,1301.19599742333
-0.0161137959044796,1301.20599742333
-0.02257591514862,1301.21599742333
-0.0292791881525595,1301.22599742333
-0.0366005900130649,1301.23599742333
-0.04428380808589,1301.24599742333
-0.0525451591744769,1301.25599742333
-0.060674292099623,1301.26599742333
-0.0685763292655695,1301.27599742333
-0.0764354971483476,1301.28599742333
-0.0845689513977433,1301.29599742333
-0.0924909796819652,1301.30599742333
-0.100533209403363,1301.31599742333
-0.108290344646369,1301.32599742333
-0.116545320555756,1301.33599742333
-0.124759476973111,1301.34599742333
-0.132994044049119,1301.35599742333
-0.141370766844561,1301.36599742333
-0.148532936709936,1301.37599742333
-0.155118820179332,1301.38599742333
-0.16137476584542,1301.39599742333
-0.166891608848308,1301.40599742333
-0.172472467747488,1301.41599742333
-0.178035862793134,1301.42599742333
-0.183672618505715,1301.43599742333
-0.189388033178325,1301.44599742333
-0.194907960051353,1301.45599742333
-0.20088898384618,1301.46599742333
-0.206855137061267,1301.47599742333
-0.213195544187817,1301.48599742333
-0.219746681756237,1301.49599742333
-0.226121042178468,1301.50599742333
-0.232573938946667,1301.51599742333
-0.238254922638177,1301.52599742333
-0.241843338718736,1301.53599742333
-0.241027319879699,1301.54599742333
-0.231732179957912,1301.55599742333
-0.211394197662899,1301.56599742333
-0.17951726215346,1301.57599742333
-0.138722297834162,1301.58599742333
-0.0883709871837039,1301.59599742333
-0.0280891940387939,1301.60599742333
0.0432563950896066,1301.61599742333
0.121047623124521,1301.62599742333
0.196706905349462,1301.63599742333
0.260207398035258,1301.64599742333
0.304792253010658,1301.65599742333
0.32980763860862,1301.66599742333
0.337460285029289,1301.67599742333
0.331467605332322,1301.68599742333
0.316542138048367,1301.69599742333
0.295644649658654,1301.70599742333
0.272232155907452,1301.71599742333
0.247961807333906,1301.72599742333
0.224014237847678,1301.73599742333
0.201639812145954,1301.74599742333
0.180078717277667,1301.75599742333
0.160312713040512,1301.76599742333
0.141822690023424,1301.77599742333
0.124621960155719,1301.78599742333
0.108364550710007,1301.79599742333
0.0924918461539399,1301.80599742333
0.0772861900283233,1301.81599742333
0.0626900990743858,1301.82599742333
0.0485433445414978,1301.83599742333
0.0349573586523732,1301.84599742333
0.0225542217932942,1301.85599742333
0.0118351777963947,1301.86599742333
0.00363875993820599,1301.87599742333
-0.00121888970386375,1301.88599742333
-0.0025611126555232,1301.89599742333
-0.000412930064061626,1301.90599742333
0.00467010742805629,1301.91599742333
0.0114583080108266,1301.92599742333
0.0194009612203118,1301.93599742333
0.0269233114649513,1301.94599742333
0.0326100359850503,1301.95599742333
0.0363151417365819,1301.96599742333
0.0382027650897773,1301.97599742333
0.0381164690185356,1301.98599742333
0.0366839834578321,1301.99599742333
0.0336287238406592,1302.00599742333
0.0292763504462047,1302.01599742333
0.0239836406640513,1302.02599742333
0.0174802353820863,1302.03599742333
0.0103315327517494,1302.04599742333
0.00243147466636781,1302.05599742333
-0.00552606106988985,1302.06599742333
-0.0139364268699232,1302.07599742333
-0.0223029217945749,1302.08599742333
-0.0305007013243569,1302.09599742333
-0.0391411789878716,1302.10599742333
-0.0480112850723103,1302.11599742333
-0.0576221290839403,1302.12599742333
-0.0670423021363871,1302.13599742333
-0.0764300848483744,1302.14599742333
-0.0856639548857599,1302.15599742333
-0.0938769016651731,1302.16599742333
-0.101645287402141,1302.17599742333
-0.109092745190758,1302.18599742333
-0.117557602455215,1302.19599742333
-0.126097396431179,1302.20599742333
-0.134244235435483,1302.21599742333
-0.142478037593793,1302.22599742333
-0.149579848956861,1302.23599742333
-0.155486672654578,1302.24599742333
-0.160727846543368,1302.25599742333
-0.165691501256395,1302.26599742333
-0.17066552873351,1302.27599742333
-0.176541937826052,1302.28599742333
-0.182905815059298,1302.29599742333
-0.189400658604244,1302.30599742333
-0.196080991049693,1302.31599742333
-0.202926200566225,1302.32599742333
-0.209322931041066,1302.33599742333
-0.215618044496987,1302.34599742333
-0.222039279105879,1302.35599742333
-0.22766424831559,1302.36599742333
-0.231828298796054,1302.37599742333
-0.232132700323918,1302.38599742333
-0.224944585132354,1302.39599742333
-0.207735083218425,1302.40599742333
-0.179009197392426,1302.41599742333
-0.141368668771919,1302.42599742333
-0.0958973147333996,1302.43599742333
-0.0412405725864934,1302.44599742333
0.0244889537952998,1302.45599742333
0.100335047991531,1302.46599742333
0.177952723492426,1302.47599742333
0.247181393605671,1302.48599742333
0.299390608291087,1302.49599742333
0.330785635001662,1302.50599742333
0.343010470288097,1302.51599742333
0.339182845552403,1302.52599742333
0.325051809183453,1302.53599742333
0.305320457702823,1302.54599742333
0.282509379629568,1302.55599742333
0.259205073205606,1302.56599742333
0.236322348198588,1302.57599742333
0.214292530153341,1302.58599742333
0.193817954252345,1302.59599742333
0.174698783178209,1302.60599742333
0.15651526932459,1302.61599742333
0.139285667907518,1302.62599742333
0.122611249110625,1302.63599742333
0.106447095379863,1302.64599742333
0.0897757288827356,1302.65599742333
0.0729206550131832,1302.66599742333
0.0557666387433754,1302.67599742333
0.0393137830342653,1302.68599742333
0.0249087850125118,1302.69599742333
0.0138700116757358,1302.70599742333
0.00670361999187849,1302.71599742333
0.00381230364812513,1302.72599742333
0.00508062196440716,1302.73599742333
0.0100655745498105,1302.74599742333
0.0181482256246926,1302.75599742333
0.027742655435524,1302.76599742333
0.0373870256124509,1302.77599742333
0.0459679374610603,1302.78599742333
0.051411736966613,1302.79599742333
0.0538065958121087,1302.80599742333
0.0536506134629021,1302.81599742333
0.0504553372587104,1302.82599742333
0.0459294154649755,1302.83599742333
0.0407803758277994,1302.84599742333
0.0348741804866819,1302.85599742333
0.0283093557530706,1302.86599742333
0.0211536374241821,1302.87599742333
0.0136353987362596,1302.88599742333
0.00591478365157049,1302.89599742333
-0.00292672309861776,1302.90599742333
-0.0118534680315632,1302.91599742333
-0.0212763306316205,1302.92599742333
-0.0304021727128803,1302.93599742333
-0.0399600028167172,1302.94599742333
-0.0492473750963366,1302.95599742333
-0.0584203230138525,1302.96599742333
-0.067327353510154,1302.97599742333
-0.0754427156050254,1302.98599742333
-0.0837775987116537,1302.99599742333
-0.0919358019245018,1303.00599742333
-0.100368705884675,1303.01599742333
-0.109126441174358,1303.02599742333
-0.118210902734353,1303.03599742333
-0.126932042080751,1303.04599742333
-0.135438606176994,1303.05599742333
-0.143487089315946,1303.06599742333
-0.151465584303949,1303.07599742333
-0.159126122819636,1303.08599742333
-0.166795077464989,1303.09599742333
-0.174389569983127,1303.10599742333
-0.182123745237921,1303.11599742333
-0.189416937074614,1303.12599742333
-0.196198700907912,1303.13599742333
-0.202074850427754,1303.14599742333
-0.20589892806972,1303.15599742333
-0.205771884341833,1303.16599742333
-0.197890834360152,1303.17599742333
-0.179448673782392,1303.18599742333
-0.150451122115121,1303.19599742333
-0.112079148173594,1303.20599742333
-0.0655501891032553,1303.21599742333
-0.0075898325106388,1303.22599742333
0.0629554819048207,1303.23599742333
0.143159770610024,1303.24599742333
0.224780770078328,1303.25599742333
0.295403131927507,1303.26599742333
0.347741589569408,1303.27599742333
0.377946689746699,1303.28599742333
0.389034093077129,1303.29599742333
0.385445274970989,1303.30599742333
0.371930932946818,1303.31599742333
0.352918062830726,1303.32599742333
0.33081861494065,1303.33599742333
0.307875457843814,1303.34599742333
0.284995312237277,1303.35599742333
0.262708310860445,1303.36599742333
0.241626719224819,1303.37599742333
0.221596688417927,1303.38599742333
0.202987761289076,1303.39599742333
0.185860764086565,1303.40599742333
0.169348014240593,1303.41599742333
0.153061869101963,1303.42599742333
0.13681463236551,1303.43599742333
0.120591379348068,1303.44599742333
0.104065437574814,1303.45599742333
0.0875610901142073,1303.46599742333
0.0727447452367669,1303.47599742333
0.0605480081067456,1303.48599742333
0.0521065777544393,1303.49599742333
0.0483001669844039,1303.50599742333
0.0495103753285551,1303.51599742333
0.0542495212342286,1303.52599742333
0.0615908160954781,1303.53599742333
0.0695355559366719,1303.54599742333
0.0769156616882984,1303.55599742333
0.0829405468227089,1303.56599742333
0.0872125717224402,1303.57599742333
0.0887286394572622,1303.58599742333
0.0877987852142623,1303.59599742333
0.0845987140446541,1303.60599742333
0.0804005246158094,1303.61599742333
0.0749541120042167,1303.62599742333
0.0680593316788864,1303.63599742333
0.0605200421851499,1303.64599742333
0.052353540476529,1303.65599742333
0.0437287382470638,1303.66599742333
0.0348385270590045,1303.67599742333
0.0258715208874797,1303.68599742333
0.0169108771542135,1303.69599742333
0.00747079446325498,1303.70599742333
-0.00191057937165105,1303.71599742333
-0.0114904220096551,1303.72599742333
-0.0211976070683172,1303.73599742333
-0.030886212960749,1303.74599742333
-0.040564025507467,1303.75599742333
-0.0495316576137633,1303.76599742333
-0.058349906694504,1303.77599742333
-0.0671742819879086,1303.78599742333
-0.0753203574197143,1303.79599742333
-0.0838112954900064,1303.80599742333
-0.0919504099812503,1303.81599742333
-0.099986307755976,1303.82599742333
-0.108333827855588,1303.83599742333
-0.115795494126335,1303.84599742333
-0.123572356481414,1303.85599742333
-0.130980882883042,1303.86599742333
-0.138127757899663,1303.87599742333
-0.145032157242897,1303.88599742333
-0.152197314509275,1303.89599742333
-0.160525099140172,1303.90599742333
-0.169153773739572,1303.91599742333
-0.178489376634227,1303.92599742333
-0.18764991389697,1303.93599742333
-0.195860537113984,1303.94599742333
-0.200447682210318,1303.95599742333
-0.198155309503978,1303.96599742333
-0.185544005463703,1303.97599742333
-0.160202917135001,1303.98599742333
-0.123990931511549,1303.99599742333
-0.0785158298671867,1304.00599742333
-0.0229345758353734,1304.01599742333
0.0465195866600595,1304.02599742333
0.129570647281817,1304.03599742333
0.219735899515848,1304.04599742333
0.304747059826257,1304.05599742333
0.374369996339902,1304.06599742333
0.421932172528418,1304.07599742333
0.447577954334473,1304.08599742333
0.454184228842632,1304.09599742333
0.447130560378474,1304.10599742333
0.4311730690641,1304.11599742333
0.410865695143475,1304.12599742333
0.387809336940152,1304.13599742333
0.364537046566993,1304.14599742333
0.341895602871152,1304.15599742333
0.32047096484427,1304.16599742333
0.300634477769616,1304.17599742333
0.281718701371849,1304.18599742333
0.263546679395376,1304.19599742333
0.246841630019701,1304.20599742333
0.230104404031513,1304.21599742333
0.213897956964812,1304.22599742333
0.19800017582583,1304.23599742333
0.181575007462428,1304.24599742333
0.165414229211827,1304.25599742333
0.149814580016214,1304.26599742333
0.136097879635934,1304.27599742333
0.124517970089003,1304.28599742333
0.116449254006737,1304.29599742333
0.112109860419087,1304.30599742333
0.111331446704282,1304.31599742333
0.113429688305044,1304.32599742333
0.118180771749026,1304.33599742333
0.123733426906898,1304.34599742333
0.129054841151055,1304.35599742333
0.133082039464407,1304.36599742333
0.135728165868885,1304.37599742333
0.135828288919063,1304.38599742333
0.133810222049636,1304.39599742333
0.129950926616457,1304.40599742333
0.124210920679707,1304.41599742333
0.117269016512877,1304.42599742333
0.109701341266703,1304.43599742333
0.101132834123135,1304.44599742333
0.0917900287127293,1304.45599742333
0.0828443923504705,1304.46599742333
0.0734049256507639,1304.47599742333
0.0638386740216821,1304.48599742333
0.0542608953668333,1304.49599742333
0.0446400469020626,1304.50599742333
0.0352448155123996,1304.51599742333
0.0260760705176123,1304.52599742333
0.0164363405467706,1304.53599742333
0.00613895822201567,1304.54599742333
-0.00433764356716684,1304.55599742333
-0.015240066576259,1304.56599742333
-0.0261792288394627,1304.57599742333
-0.0367623484654279,1304.58599742333
-0.047212680721325,1304.59599742333
-0.0569669835999093,1304.60599742333
-0.06642816305916,1304.61599742333
-0.075338284009397,1304.62599742333
-0.0836630885340015,1304.63599742333
-0.091463390942613,1304.64599742333
-0.0994727204109246,1304.65599742333
-0.107253859424341,1304.66599742333
-0.115489171570109,1304.67599742333
-0.124335754817266,1304.68599742333
-0.133488633381327,1304.69599742333
-0.142347630165837,1304.70599742333
-0.150628232978337,1304.71599742333
-0.159230036521977,1304.72599742333
-0.168010679439907,1304.73599742333
-0.17700696291325,1304.74599742333
-0.186514074752294,1304.75599742333
-0.195869806338722,1304.76599742333
-0.203571186145034,1304.77599742333
-0.208197146296486,1304.78599742333
-0.206267115534181,1304.79599742333
-0.193660949150518,1304.80599742333
-0.168798638166507,1304.81599742333
-0.13215379574379,1304.82599742333
-0.0872525372085489,1304.83599742333
-0.034291994838329,1304.84599742333
0.0303260676197955,1304.85599742333
0.108301205132611,1304.86599742333
0.196110695112279,1304.87599742333
0.283487563626493,1304.88599742333
0.35904472583001,1304.89599742333
0.413889392499765,1304.90599742333
0.445301110143838,1304.91599742333
0.456185295072139,1304.92599742333
0.451549340415898,1304.93599742333
0.436604623630288,1304.94599742333
0.41628314528432,1304.95599742333
0.394022139752237,1304.96599742333
0.370780904505073,1304.97599742333
0.348881871873182,1304.98599742333
0.326956892746555,1304.99599742333
0.305893446818776,1305.00599742333
0.286014567747634,1305.01599742333
0.267587812865544,1305.02599742333
0.250588079319716,1305.03599742333
0.233902528002673,1305.04599742333
0.217334064923424,1305.05599742333
0.200668394814447,1305.06599742333
0.183711202295318,1305.07599742333
0.166632295442347,1305.08599742333
0.149534134474753,1305.09599742333
0.13407883389333,1305.10599742333
0.121201645010929,1305.11599742333
0.111242825531317,1305.12599742333
0.105421179872594,1305.13599742333
0.103686223755313,1305.14599742333
0.10568090042859,1305.15599742333
0.110346648766093,1305.16599742333
0.116664251135082,1305.17599742333
0.122880044958746,1305.18599742333
0.127873581500561,1305.19599742333
0.130585218522341,1305.20599742333
0.131019552977131,1305.21599742333
0.129564680793478,1305.22599742333
0.126154006058688,1305.23599742333
0.121203754459698,1305.24599742333
0.114795617903377,1305.25599742333
0.107767654593397,1305.26599742333
0.100312171273502,1305.27599742333
0.0916616150207487,1305.28599742333
0.0825161904669154,1305.29599742333
0.0728444688602966,1305.30599742333
0.0624136788950972,1305.31599742333
0.0518031147475738,1305.32599742333
0.0410135991863357,1305.33599742333
0.0298581732936512,1305.34599742333
0.0186667013030592,1305.35599742333
0.00658214177527042,1305.36599742333
-0.00535612708405942,1305.37599742333
-0.0170203990120133,1305.38599742333
-0.0281098864510116,1305.39599742333
-0.0389885298706739,1305.40599742333
-0.0495958725170763,1305.41599742333
-0.0602349569576104,1305.42599742333
-0.0700808758930109,1305.43599742333
-0.0795843040548977,1305.44599742333
-0.0888420384727291,1305.45599742333
-0.0979167144112001,1305.46599742333
-0.106385360678508,1305.47599742333
-0.114254868730165,1305.48599742333
-0.121771184856361,1305.49599742333
-0.129275321894335,1305.50599742333
-0.136892941351275,1305.51599742333
-0.145186902730391,1305.52599742333
-0.153888532884974,1305.53599742333
-0.162397446360695,1305.54599742333
-0.171596300236058,1305.55599742333
-0.181007510567252,1305.56599742333
-0.190388933576513,1305.57599742333
-0.199982780086153,1305.58599742333
-0.20860134522064,1305.59599742333
-0.217066556552776,1305.60599742333
-0.222956546606631,1305.61599742333
-0.223979652414655,1305.62599742333
-0.21616123943869,1305.63599742333
-0.19590088553384,1305.64599742333
-0.163586562776433,1305.65599742333
-0.122016819252789,1305.66599742333
-0.0739305288448846,1305.67599742333
-0.0181640191031996,1305.68599742333
0.0475544758110919,1305.69599742333
0.124262831080691,1305.70599742333
0.205923015764462,1305.71599742333
0.281956781167982,1305.72599742333
0.34246688110479,1305.73599742333
0.382336959885683,1305.74599742333
0.400360281159068,1305.75599742333
0.400190839860178,1305.76599742333
0.387309305012728,1305.77599742333
0.366904741338711,1305.78599742333
0.34233778109989,1305.79599742333
0.316743295536151,1305.80599742333
0.292006351788647,1305.81599742333
0.268938556034687,1305.82599742333
0.248162795012911,1305.83599742333
0.228334144356657,1305.84599742333
0.20990700376289,1305.85599742333
0.19201360931534,1305.86599742333
0.174291990123772,1305.87599742333
0.155861593952614,1305.88599742333
0.137074115290939,1305.89599742333
0.11758109878007,1305.90599742333
0.0984785184591067,1305.91599742333
0.0806617422662246,1305.92599742333
0.0653468420883577,1305.93599742333
0.0542700586244627,1305.94599742333
0.0478299789178976,1305.95599742333
0.0462248542606939,1305.96599742333
0.0489336270745387,1305.97599742333
0.0553646951777721,1305.98599742333
0.0637980384566022,1305.99599742333
0.0730198393113362,1306.00599742333
0.0806335239246871,1306.01599742333
0.0856216748060833,1306.02599742333
0.087491033195665,1306.03599742333
0.0865342685575399,1306.04599742333
0.0836865875399657,1306.05599742333
0.0794233420913117,1306.06599742333
0.0741162337440901,1306.07599742333
0.0679189961462711,1306.08599742333
0.0612797469324193,1306.09599742333
0.0534996532901104,1306.10599742333
0.045201695733506,1306.11599742333
0.0361824805928947,1306.12599742333
0.0264535065469846,1306.13599742333
0.0168703248914838,1306.14599742333
0.00703898759533066,1306.15599742333
-0.00302203409558566,1306.16599742333
-0.0130390727718488,1306.17599742333
-0.0229295586000664,1306.18599742333
-0.0338561979543132,1306.19599742333
-0.0447322654929841,1306.20599742333
-0.0559168180881123,1306.21599742333
-0.0672491594097262,1306.22599742333
-0.078606483088898,1306.23599742333
-0.0890551425072266,1306.24599742333
-0.0989348620748764,1306.25599742333
-0.108143336439474,1306.26599742333
-0.117199894877975,1306.27599742333
-0.12613897030789,1306.28599742333
-0.134676922892824,1306.29599742333
-0.143260119933258,1306.30599742333
-0.151799606787883,1306.31599742333
-0.160339135913164,1306.32599742333
-0.168652675308454,1306.33599742333
-0.177182686089026,1306.34599742333
-0.185472870066834,1306.35599742333
-0.193790040863335,1306.36599742333
-0.202612975181047,1306.37599742333
-0.211163114962211,1306.38599742333
-0.218012977236811,1306.39599742333
-0.221561282947312,1306.40599742333
-0.217574034334011,1306.41599742333
-0.202520102261617,1306.42599742333
-0.175168076497848,1306.43599742333
-0.136830667349268,1306.44599742333
-0.0910346989269078,1306.45599742333
-0.0381794018288401,1306.46599742333
0.0247391225697664,1306.47599742333
0.0996510821213281,1306.48599742333
0.183502978632594,1306.49599742333
0.266897166119484,1306.50599742333
0.337814974715595,1306.51599742333
0.38912358531748,1306.52599742333
0.41787108692931,1306.53599742333
0.426524944364983,1306.54599742333
0.419809400926207,1306.55599742333
0.403005512652301,1306.56599742333
0.380952878850797,1306.57599742333
0.356888602213524,1306.58599742333
0.332789563241612,1306.59599742333
0.309147915778297,1306.60599742333
0.287273700432872,1306.61599742333
0.266788257728379,1306.62599742333
0.247611348766841,1306.63599742333
0.229110802336233,1306.64599742333
0.211633099163668,1306.65599742333
0.194072966485474,1306.66599742333
0.176225725472803,1306.67599742333
0.15837641017807,1306.68599742333
0.140446565031722,1306.69599742333
0.123331625738929,1306.70599742333
0.107883525160369,1306.71599742333
0.0946931956646058,1306.72599742333
0.0843940237764426,1306.73599742333
0.0786263261975347,1306.74599742333
0.0764138267083304,1306.75599742333
0.0786995051906659,1306.76599742333
0.0836628272374198,1306.77599742333
0.0907089281822648,1306.78599742333
0.0984469830921732,1306.79599742333
0.105167376856772,1306.80599742333
0.109694249629792,1306.81599742333
0.112162199011725,1306.82599742333
0.111737048029625,1306.83599742333
0.109168072267986,1306.84599742333
0.104974430018085,1306.85599742333
0.0995734416161809,1306.86599742333
0.0927294019412586,1306.87599742333
0.0844717602101075,1306.88599742333
0.0759319432027474,1306.89599742333
0.0666552250077788,1306.90599742333
0.0565324275204116,1306.91599742333
0.0463470379004875,1306.92599742333
0.0358722492685525,1306.93599742333
0.025661099181432,1306.94599742333
0.0152843304127552,1306.95599742333
0.00489287046031569,1306.96599742333
-0.00553754257507561,1306.97599742333
-0.0163369324314994,1306.98599742333
-0.0275909278208418,1306.99599742333
-0.0388856507240587,1307.00599742333
-0.0496259770086596,1307.01599742333
-0.0605003385853998,1307.02599742333
-0.0708911296249075,1307.03599742333
-0.0811819595045029,1307.04599742333
-0.0912733968099362,1307.05599742333
-0.100904116968196,1307.06599742333
-0.11056499052493,1307.07599742333
-0.120303438130171,1307.08599742333
-0.129300078837142,1307.09599742333
-0.137962999459123,1307.10599742333
-0.146586296896822,1307.11599742333
-0.155682931040209,1307.12599742333
-0.16480384901899,1307.13599742333
-0.174024588324409,1307.14599742333
-0.18320884477404,1307.15599742333
-0.192457771862884,1307.16599742333
-0.202191600441071,1307.17599742333
-0.211456660183829,1307.18599742333
-0.220820004815903,1307.19599742333
-0.228965912961841,1307.20599742333
-0.234833781814097,1307.21599742333
-0.235155954731637,1307.22599742333
-0.225691691569805,1307.23599742333
-0.203553440705402,1307.24599742333
-0.168734158137042,1307.25599742333
-0.124266649700092,1307.26599742333
-0.0728500247013415,1307.27599742333
-0.0132249587068127,1307.28599742333
0.0572261587004321,1307.29599742333
0.139568643074343,1307.30599742333
0.227201997484157,1307.31599742333
0.308788487672812,1307.32599742333
0.373977821331785,1307.33599742333
0.416087730760443,1307.34599742333
0.435818328154766,1307.35599742333
0.436717860941865,1307.36599742333
0.423854195434923,1307.37599742333
0.404027637027057,1307.38599742333
0.380840883885475,1307.39599742333
0.356277248145512,1307.40599742333
0.33242317361363,1307.41599742333
0.310181508179325,1307.42599742333
0.289132183844786,1307.43599742333
0.269416432706971,1307.44599742333
0.251502655168294,1307.45599742333
0.233608478485313,1307.46599742333
0.216713979294507,1307.47599742333
0.199602689630018,1307.48599742333
0.182062855241474,1307.49599742333
0.164060635279898,1307.50599742333
0.145852060488246,1307.51599742333
0.128664708090759,1307.52599742333
0.112810313270807,1307.53599742333
0.0996437152984683,1307.54599742333
0.0895779599429516,1307.55599742333
0.083763902968929,1307.56599742333
0.0823784107900791,1307.57599742333
0.0848022253498141,1307.58599742333
0.0906625570297735,1307.59599742333
0.0981675048892642,1307.60599742333
0.105411687453908,1307.61599742333
0.111247391451852,1307.62599742333
0.11486270845993,1307.63599742333
0.116020957005504,1307.64599742333
0.114371062781116,1307.65599742333
0.110197173622644,1307.66599742333
0.104727089911124,1307.67599742333
0.0982157951656822,1307.68599742333
0.0907320352465589,1307.69599742333
0.082870078860911,1307.70599742333
0.074318532955427,1307.71599742333
0.0652585619109477,1307.72599742333
0.0555344863961083,1307.73599742333
0.0456627929292045,1307.74599742333
0.0353906195963161,1307.75599742333
0.0250806661863596,1307.76599742333
0.014479852533058,1307.77599742333
0.0040640235875265,1307.78599742333
-0.00656572962679684,1307.79599742333
-0.0170443036193256,1307.80599742333
-0.0273657485972957,1307.81599742333
-0.0382104793840343,1307.82599742333
-0.048302659744802,1307.83599742333
-0.0588740738027687,1307.84599742333
-0.0691732888968946,1307.85599742333
-0.0786425939908575,1307.86599742333
-0.0877614886785364,1307.87599742333
-0.0960653992097711,1307.88599742333
-0.104508030752369,1307.89599742333
-0.112627827152195,1307.90599742333
-0.120591420968211,1307.91599742333
-0.129344924972696,1307.92599742333
-0.139477908902939,1307.93599742333
-0.149331531575062,1307.94599742333
-0.159588625342848,1307.95599742333
-0.16946316757215,1307.96599742333
-0.179247391813164,1307.97599742333
-0.190069697894164,1307.98599742333
-0.200873039694966,1307.99599742333
-0.212087411289254,1308.00599742333
-0.221934993678695,1308.01599742333
-0.228289531036511,1308.02599742333
-0.227084137601405,1308.03599742333
-0.213137416770579,1308.04599742333
-0.185316959616877,1308.05599742333
-0.145359615999004,1308.06599742333
-0.0969579787515279,1308.07599742333
-0.0400467449414708,1308.08599742333
0.0284907496988908,1308.09599742333
0.110845986666957,1308.10599742333
0.203480124279373,1308.11599742333
0.295730853252583,1308.12599742333
0.375124054312599,1308.13599742333
0.43250142214966,1308.14599742333
0.465464193955166,1308.15599742333
0.476745429928998,1308.16599742333
0.471543344928797,1308.17599742333
0.456062383924282,1308.18599742333
0.435261534716212,1308.19599742333
0.412001559955124,1308.20599742333
0.388148473686822,1308.21599742333
0.364465834658816,1308.22599742333
0.342014339538439,1308.23599742333
0.320565022337232,1308.24599742333
0.300336155112347,1308.25599742333
0.280905811759775,1308.26599742333
0.262580822918395,1308.27599742333
0.244709376011244,1308.28599742333
0.226334558720843,1308.29599742333
0.208393169505369,1308.30599742333
0.189830538694855,1308.31599742333
0.171783787391578,1308.32599742333
0.154802665488991,1308.33599742333
0.140023398951544,1308.34599742333
0.128458405493914,1308.35599742333
0.120685939822177,1308.36599742333
0.116943201913742,1308.37599742333
0.117129450223073,1308.38599742333
0.120442112192073,1308.39599742333
0.125417276185103,1308.40599742333
0.131070667928929,1308.41599742333
0.136086730162041,1308.42599742333
0.139688569616607,1308.43599742333
0.140851159038143,1308.44599742333
0.139772951503721,1308.45599742333
0.136380815961761,1308.46599742333
0.130963034627332,1308.47599742333
0.123596534417825,1308.48599742333
0.114182276429041,1308.49599742333
0.104206285115989,1308.50599742333
0.0932281849589389,1308.51599742333
0.0825454698841864,1308.52599742333
0.0721985312417327,1308.53599742333
0.0608500384941254,1308.54599742333
0.0498417740492035,1308.55599742333
0.0389510638062615,1308.56599742333
0.0279227725869199,1308.57599742333
0.0161894229192515,1308.58599742333
0.0044083468216413,1308.59599742333
-0.0074724841888717,1308.60599742333
-0.0196407114336037,1308.61599742333
-0.032123672028847,1308.62599742333
-0.044688760550513,1308.63599742333
-0.0566924664291221,1308.64599742333
-0.0682518336674929,1308.65599742333
-0.0796551004497715,1308.66599742333
-0.0908376445121599,1308.67599742333
-0.10172563845,1308.68599742333
-0.112296971182078,1308.69599742333
-0.122468741359414,1308.70599742333
-0.132001143773363,1308.71599742333
-0.141434102159217,1308.72599742333
-0.150937962251289,1308.73599742333
-0.160207862820027,1308.74599742333
-0.169315729293039,1308.75599742333
-0.17897880441643,1308.76599742333
-0.188784091320072,1308.77599742333
-0.199065485591934,1308.78599742333
-0.209045626808523,1308.79599742333
-0.219194168195186,1308.80599742333
-0.23028271965972,1308.81599742333
-0.241051776987622,1308.82599742333
-0.25205380481812,1308.83599742333
-0.262390217928969,1308.84599742333
-0.271061320646389,1308.85599742333
-0.276327630903465,1308.86599742333
-0.274562232423443,1308.87599742333
-0.261230086691671,1308.88599742333
-0.233555315084792,1308.89599742333
-0.192048802469766,1308.90599742333
-0.141862553864045,1308.91599742333
-0.085399888690294,1308.92599742333
-0.0200166233747996,1308.93599742333
0.0573659487168213,1308.94599742333
0.147371411540294,1308.95599742333
0.243151594827774,1308.96599742333
0.332094732737906,1308.97599742333
0.403668007280305,1308.98599742333
0.451397258422988,1308.99599742333
0.475138238118811,1309.00599742333
0.478985594916462,1309.01599742333
0.468518986482451,1309.02599742333
0.44982000267105,1309.03599742333
0.426732468117371,1309.04599742333
0.401881542788229,1309.05599742333
0.377094709397108,1309.06599742333
0.353221548065065,1309.07599742333
0.331253628900856,1309.08599742333
0.310290351202088,1309.09599742333
0.291044719499906,1309.10599742333
0.272553007456065,1309.11599742333
0.254246546195356,1309.12599742333
0.236116611953203,1309.13599742333
0.217732648000338,1309.14599742333
0.198722907897331,1309.15599742333
0.179805827510748,1309.16599742333
0.161482063482275,1309.17599742333
0.144098031777924,1309.18599742333
0.129514694670657,1309.19599742333
0.118384494174203,1309.20599742333
0.11145904227657,1309.21599742333
0.109393812024836,1309.22599742333
0.110831422695734,1309.23599742333
0.115009990208332,1309.24599742333
0.120255776353986,1309.25599742333
0.125831992277312,1309.26599742333
0.13062065554655,1309.27599742333
0.133722117627492,1309.28599742333
0.134627749606878,1309.29599742333
0.132556804286553,1309.30599742333
0.128435014266661,1309.31599742333
0.122364996124616,1309.32599742333
0.114589011014905,1309.33599742333
0.106387282422409,1309.34599742333
0.0975960332961947,1309.35599742333
0.0885343633736141,1309.36599742333
0.0788770847758785,1309.37599742333
0.0689082829461004,1309.38599742333
0.057967808409456,1309.39599742333
0.0465987562676843,1309.40599742333
0.035193680753231,1309.41599742333
0.0229320643231035,1309.42599742333
0.0111604577196817,1309.43599742333
-0.00112955952147114,1309.44599742333
-0.0136002878239229,1309.45599742333
-0.0258100138162888,1309.46599742333
-0.0383331061091471,1309.47599742333
-0.0512025535882367,1309.48599742333
-0.0640725944746323,1309.49599742333
-0.0765948078511594,1309.50599742333
-0.0891461479305915,1309.51599742333
-0.101200695014115,1309.52599742333
-0.112957350655625,1309.53599742333
-0.124440763983353,1309.54599742333
-0.135261490773467,1309.55599742333
-0.145382131384889,1309.56599742333
-0.154916995077666,1309.57599742333
-0.163915978598102,1309.58599742333
-0.172367085184235,1309.59599742333
-0.180100524401147,1309.60599742333
-0.18821199579767,1309.61599742333
-0.196339350450151,1309.62599742333
-0.204467059680049,1309.63599742333
-0.212939511460458,1309.64599742333
-0.221611002897394,1309.65599742333
-0.230223833592309,1309.66599742333
-0.239032691314133,1309.67599742333
-0.248457703162842,1309.68599742333
-0.257962915679986,1309.69599742333
-0.267928869548299,1309.70599742333
-0.277956317869439,1309.71599742333
-0.287861278526198,1309.72599742333
-0.296094140016627,1309.73599742333
-0.298947026130356,1309.74599742333
-0.29196328382524,1309.75599742333
-0.270723860870192,1309.76599742333
-0.234612813701595,1309.77599742333
-0.18722183831251,1309.78599742333
-0.133460487540864,1309.79599742333
-0.0751877020018247,1309.80599742333
-0.00991262311786148,1309.81599742333
0.0660652839916575,1309.82599742333
0.151342449031358,1309.83599742333
0.238533556762513,1309.84599742333
0.316218153613134,1309.85599742333
0.374787233096393,1309.86599742333
0.409142654567398,1309.87599742333
0.420178739918012,1309.88599742333
0.413331998399896,1309.89599742333
0.394693444103564,1309.90599742333
0.369470659205671,1309.91599742333
0.343040255681922,1309.92599742333
0.316205212368713,1309.93599742333
